"sep=	"
Shimmer_B64E_Timestamp_FormattedUnix_CAL	Shimmer_B64E_ECG_LA-RA_24BIT_CAL	Shimmer_B64E_ECG_LL-RA_24BIT_CAL	Shimmer_B64E_ECG_RESP_24BIT_CAL	Shimmer_B64E_ECG_Vx-RL_24BIT_CAL	
yyyy/mm/dd hh:mm:ss.000	mV	mV	mV	mV	
2015/06/25 15:39:24.532	-0.0656306821859696	-0.563991137026684	-1.49904805410481	-2.89820765235515	
2015/06/25 15:39:24.533	-0.0656306821859696	-0.563269920738926	-1.50193291925584	-2.89207731390921	
2015/06/25 15:39:24.534	-0.0645488577543327	-0.557500190436863	-1.4907540667956	-2.87765298815405	
2015/06/25 15:39:24.535	-0.0649094658982117	-0.563269920738926	-1.49940866224869	-3.03812361218019	
2015/06/25 15:39:24.536	-0.0663518984737275	-0.564712353314442	-1.49291771565887	-3.05254793793534	
2015/06/25 15:39:24.537	-0.0688761554808802	-0.562909312595047	-1.49291771565887	-3.05254793793534	
2015/06/25 15:39:24.538	-0.0692367636247592	-0.5517304601348	-1.49291771565887	-3.05254793793534	
2015/06/25 15:39:24.539	-0.0739246694951856	-0.556057757861347	-1.49291771565887	-3.05254793793534	
2015/06/25 15:39:24.540	-0.0728428450635487	-0.554254717141952	-1.48822980978844	-3.2487187682055	
2015/06/25 15:39:24.541	-0.0638276414665748	-0.561466880019531	-1.4889510260762	-3.26999464869435	
2015/06/25 15:39:24.542	-0.0667125066176065	-0.556778974149105	-1.4889510260762	-3.26999464869435	
2015/06/25 15:39:24.543	-0.0656306821859696	-0.553533500854194	-1.4889510260762	-3.26999464869435	
2015/06/25 15:39:24.544	-0.0677943310492434	-0.557139582292984	-1.4889510260762	-3.26999464869435	
2015/06/25 15:39:24.545	-0.062745817034938	-0.552091068278679	-1.4889510260762	-3.26999464869435	
2015/06/25 15:39:24.546	-0.0667125066176065	-0.558942623012379	-1.4889510260762	-3.26999464869435	
2015/06/25 15:39:24.547	-0.0663518984737275	-0.556057757861347	-1.4889510260762	-3.26999464869435	
2015/06/25 15:39:24.548	-0.0631064251788169	-0.556778974149105	-1.47849338990371	-3.02009320498624	
2015/06/25 15:39:24.549	-0.0699579799125171	-0.561106271875652	-1.48029643062311	-2.9248926550022	
2015/06/25 15:39:24.550	-0.0674337229053644	-0.553894108998073	-1.48354190391802	-2.92092596541953	
2015/06/25 15:39:24.551	-0.0724822369196698	-0.558221406724621	-1.48137825505474	-2.89784704421127	
2015/06/25 15:39:24.552	-0.0667125066176065	-0.560745663731773	-1.47957521433535	-2.86214683796726	
2015/06/25 15:39:24.553	-0.0714004124880329	-0.556418366005226	-1.48101764691086	-2.85890136467235	
2015/06/25 15:39:24.554	-0.0663518984737275	-0.555697149717468	-1.47813278175983	-2.88234089402448	
2015/06/25 15:39:24.555	-0.0616639926033011	-0.554615325285831	-1.47560852475268	-2.96888684855543	
2015/06/25 15:39:24.556	-0.0681549391931223	-0.556418366005226	-1.4820994713425	-3.01612651540357	
2015/06/25 15:39:24.557	-0.0692367636247592	-0.548845594983768	-1.47957521433535	-3.04605699134552	
2015/06/25 15:39:24.558	-0.0681549391931223	-0.553172892710315	-1.48318129577414	-3.09185422561815	
2015/06/25 15:39:24.559	-0.0652700740420907	-0.55497593342971	-1.4752479166088	-3.17551531499807	
2015/06/25 15:39:24.560	-0.0677943310492434	-0.553533500854194	-1.47560852475268	-3.22311558999009	
2015/06/25 15:39:24.560	-0.062385208891059	-0.549927419415405	-1.47560852475268	-3.23717930760137	
2015/06/25 15:39:24.561	-0.0634670333226959	-0.551369851990921	-1.47957521433535	-3.26134005324126	
2015/06/25 15:39:24.563	-0.0605821681716643	-0.5517304601348	-1.47885399804759	-3.26494613468005	
2015/06/25 15:39:24.564	-0.0634670333226959	-0.550288027559284	-1.47921460619147	-3.21842768411966	
2015/06/25 15:39:24.565	-0.0634670333226959	-0.547042554264373	-1.47308426774553	-3.10195125364676	
2015/06/25 15:39:24.566	-0.062745817034938	-0.550288027559284	-1.47885399804759	-3.08103598130178	
2015/06/25 15:39:24.567	-0.0584185193083905	-0.548845594983768	-1.4770509573282	-3.03379631445364	
2015/06/25 15:39:24.568	-0.0638276414665748	-0.548845594983768	-1.47957521433535	-2.91984414098789	
2015/06/25 15:39:24.569	-0.0663518984737275	-0.544878905401099	-1.47452670032104	-2.87801359629793	
2015/06/25 15:39:24.570	-0.0645488577543327	-0.548845594983768	-1.47452670032104	-2.87801359629793	
2015/06/25 15:39:24.571	-0.062745817034938	-0.545600121688857	-1.47452670032104	-2.87801359629793	
2015/06/25 15:39:24.572	-0.0616639926033011	-0.551009243847042	-1.47452670032104	-2.87801359629793	
2015/06/25 15:39:24.573	-0.0659912903298486	-0.5517304601348	-1.46875697001898	-2.79940102093232	
2015/06/25 15:39:24.574	-0.0555336541573589	-0.546681946120494	-1.46262663157304	-2.86286805425502	
2015/06/25 15:39:24.575	-0.0685155473370013	-0.550288027559284	-1.46587210486795	-2.96347772639724	
2015/06/25 15:39:24.576	-0.0659912903298486	-0.552091068278679	-1.47236305145777	-3.00278401408005	
2015/06/25 15:39:24.577	-0.0674337229053644	-0.549927419415405	-1.47236305145777	-3.00278401408005	
2015/06/25 15:39:24.578	-0.0645488577543327	-0.547403162408252	-1.47236305145777	-3.00278401408005	
2015/06/25 15:39:24.579	-0.0663518984737275	-0.550288027559284	-1.47236305145777	-3.00278401408005	
2015/06/25 15:39:24.580	-0.0699579799125171	-0.549566811271526	-1.47236305145777	-3.00278401408005	
2015/06/25 15:39:24.581	-0.0631064251788169	-0.54127282396231	-1.47236305145777	-3.00278401408005	
2015/06/25 15:39:24.582	-0.0681549391931223	-0.543797080969463	-1.47488730846492	-3.20724883165942	
2015/06/25 15:39:24.583	-0.0613033844594222	-0.546681946120494	-1.47236305145777	-3.23177018544319	
2015/06/25 15:39:24.584	-0.0695973717686381	-0.545600121688857	-1.47452670032104	-3.1921032896165	
2015/06/25 15:39:24.585	-0.0670731147614854	-0.547403162408252	-1.47416609217716	-3.11998166084071	
2015/06/25 15:39:24.586	-0.0681549391931223	-0.543436472825584	-1.47236305145777	-3.06408739853947	
2015/06/25 15:39:24.587	-0.0670731147614854	-0.544518297257221	-1.47236305145777	-3.06408739853947	
2015/06/25 15:39:24.588	-0.0681549391931223	-0.547763770552131	-1.47236305145777	-3.06408739853947	
2015/06/25 15:39:24.589	-0.0631064251788169	-0.549206203127647	-1.47236305145777	-3.06408739853947	
2015/06/25 15:39:24.590	-0.0670731147614854	-0.54812437869601	-1.47849338990371	-2.85745893209683	
2015/06/25 15:39:24.591	-0.0631064251788169	-0.549206203127647	-1.47669034918432	-2.84664068778046	
2015/06/25 15:39:24.592	-0.0616639926033011	-0.553533500854194	-1.4770509573282	-2.81490717111911	
2015/06/25 15:39:24.593	-0.0645488577543327	-0.548845594983768	-1.46623271301183	-2.81598899555075	
2015/06/25 15:39:24.594	-0.0677943310492434	-0.553533500854194	-1.46623271301183	-2.81598899555075	
2015/06/25 15:39:24.595	-0.0674337229053644	-0.542715256537826	-1.47560852475268	-2.84988616107537	
2015/06/25 15:39:24.596	-0.062745817034938	-0.540190999530673	-1.47092061888225	-2.94148062962063	
2015/06/25 15:39:24.597	-0.0591397355961484	-0.542715256537826	-1.46731453744346	-3.01576590725969	
2015/06/25 15:39:24.598	-0.0613033844594222	-0.547763770552131	-1.47092061888225	-3.07959354872627	
2015/06/25 15:39:24.599	-0.0638276414665748	-0.551369851990921	-1.47308426774553	-3.1715486254154	
2015/06/25 15:39:24.600	-0.0602215600277853	-0.544518297257221	-1.46803575373122	-3.19606997919917	
2015/06/25 15:39:24.601	-0.0638276414665748	-0.540551607674552	-1.46803575373122	-3.20183970950123	
2015/06/25 15:39:24.601	-0.0638276414665748	-0.544878905401099	-1.46262663157304	-3.2350156587381	
2015/06/25 15:39:24.602	-0.0609427763155432	-0.547403162408252	-1.47056001073837	-3.2400641727524	
2015/06/25 15:39:24.603	-0.062745817034938	-0.541633432106189	-1.47092061888225	-3.23032775286767	
2015/06/25 15:39:24.604	-0.0645488577543327	-0.548845594983768	-1.47056001073837	-3.14197875761733	
2015/06/25 15:39:24.605	-0.0681549391931223	-0.547042554264373	-1.4701994025945	-3.07238138584869	
2015/06/25 15:39:24.606	-0.0681549391931223	-0.543436472825584	-1.47128122702613	-3.07166016956093	
2015/06/25 15:39:24.607	-0.0638276414665748	-0.545239513544978	-1.47092061888225	-3.02153563756175	
2015/06/25 15:39:24.608	-0.0602215600277853	-0.543797080969463	-1.4701994025945	-2.91227136996643	
2015/06/25 15:39:24.609	-0.0677943310492434	-0.541994040250068	-1.4683963618751	-2.88125906959284	
2015/06/25 15:39:24.610	-0.0667125066176065	-0.545239513544978	-1.46479028043631	-2.86070440539174	
2015/06/25 15:39:24.611	-0.0591397355961484	-0.549566811271526	-1.46983879445062	-2.82572541543548	
2015/06/25 15:39:24.612	-0.0631064251788169	-0.541994040250068	-1.46983879445062	-2.82572541543548	
2015/06/25 15:39:24.613	-0.0663518984737275	-0.53766674252352	-1.46406906414855	-2.79254946619862	
2015/06/25 15:39:24.614	-0.0649094658982117	-0.543436472825584	-1.4615448071414	-2.82608602357936	
2015/06/25 15:39:24.615	-0.0634670333226959	-0.544518297257221	-1.45974176642201	-2.89424096277248	
2015/06/25 15:39:24.616	-0.0620246007471801	-0.551009243847042	-1.46370845600467	-2.97249292999422	
2015/06/25 15:39:24.617	-0.0645488577543327	-0.543797080969463	-1.45865994199037	-3.02153563756175	
2015/06/25 15:39:24.618	-0.0659912903298486	-0.549206203127647	-1.46515088858019	-3.10844220023658	
2015/06/25 15:39:24.619	-0.0602215600277853	-0.544518297257221	-1.46515088858019	-3.10844220023658	
2015/06/25 15:39:24.620	-0.062745817034938	-0.549206203127647	-1.46515088858019	-3.10844220023658	
2015/06/25 15:39:24.621	-0.0616639926033011	-0.544518297257221	-1.46515088858019	-3.10844220023658	
2015/06/25 15:39:24.622	-0.0641882496104538	-0.545239513544978	-1.46515088858019	-3.19859423620632	
2015/06/25 15:39:24.623	-0.0652700740420907	-0.540551607674552	-1.46803575373122	-3.21410038639312	
2015/06/25 15:39:24.624	-0.062385208891059	-0.542354648393947	-1.46803575373122	-3.21410038639312	
2015/06/25 15:39:24.625	-0.0605821681716643	-0.544878905401099	-1.46803575373122	-3.21410038639312	
2015/06/25 15:39:24.626	-0.0620246007471801	-0.540190999530673	-1.46803575373122	-3.21410038639312	
2015/06/25 15:39:24.627	-0.0616639926033011	-0.549927419415405	-1.46803575373122	-3.21410038639312	
2015/06/25 15:39:24.628	-0.0613033844594222	-0.544157689113342	-1.46803575373122	-3.21410038639312	
2015/06/25 15:39:24.629	-0.0641882496104538	-0.550288027559284	-1.46803575373122	-3.21410038639312	
2015/06/25 15:39:24.630	-0.0667125066176065	-0.539830391386794	-1.46695392929958	-2.81634960369463	
2015/06/25 15:39:24.631	-0.0613033844594222	-0.541633432106189	-1.46479028043631	-2.8203162932773	
2015/06/25 15:39:24.632	-0.0735640613513066	-0.544518297257221	-1.47272365960165	-2.79867980464456	
2015/06/25 15:39:24.633	-0.070679196200275	-0.549206203127647	-1.46479028043631	-2.77812514044346	
2015/06/25 15:39:24.634	-0.0710398043441539	-0.547763770552131	-1.46046298270976	-2.78750095218431	
2015/06/25 15:39:24.635	-0.062745817034938	-0.546681946120494	-1.46262663157304	-2.82139811770894	
2015/06/25 15:39:24.636	-0.0674337229053644	-0.543436472825584	-1.46262663157304	-2.93462907488693	
2015/06/25 15:39:24.637	-0.0692367636247592	-0.547763770552131	-1.45902055013425	-2.98006570101568	
2015/06/25 15:39:24.638	-0.0616639926033011	-0.546681946120494	-1.46046298270976	-3.00242340593617	
2015/06/25 15:39:24.639	-0.0652700740420907	-0.543075864681705	-1.46370845600467	-3.10699976766107	
2015/06/25 15:39:24.640	-0.0663518984737275	-0.541633432106189	-1.46479028043631	-3.17226984170316	
2015/06/25 15:39:24.641	-0.062385208891059	-0.552451676422557	-1.46659332115571	-3.18020322086849	
2015/06/25 15:39:24.642	-0.0645488577543327	-0.546681946120494	-1.46731453744346	-3.20616700722778	
2015/06/25 15:39:24.643	-0.0685155473370013	-0.541633432106189	-1.46262663157304	-3.21914890040742	
2015/06/25 15:39:24.643	-0.0598609518839064	-0.544157689113342	-1.4615448071414	-3.22960653657991	
2015/06/25 15:39:24.644	-0.0695973717686381	-0.543797080969463	-1.46515088858019	-3.18344869416341	
2015/06/25 15:39:24.645	-0.0631064251788169	-0.545960729832736	-1.46803575373122	-3.07166016956093	
2015/06/25 15:39:24.646	-0.0616639926033011	-0.543797080969463	-1.46731453744346	-3.04894185649656	
2015/06/25 15:39:24.647	-0.0681549391931223	-0.544878905401099	-1.46406906414855	-3.00783252809435	
2015/06/25 15:39:24.648	-0.0631064251788169	-0.547403162408252	-1.46298723971692	-2.95338069836863	
2015/06/25 15:39:24.649	-0.0652700740420907	-0.542715256537826	-1.46298723971692	-2.95338069836863	
2015/06/25 15:39:24.650	-0.0649094658982117	-0.549206203127647	-1.46298723971692	-2.95338069836863	
2015/06/25 15:39:24.651	-0.0649094658982117	-0.541633432106189	-1.46298723971692	-2.95338069836863	
2015/06/25 15:39:24.652	-0.0681549391931223	-0.541633432106189	-1.46479028043631	-2.81815264441403	
2015/06/25 15:39:24.653	-0.0620246007471801	-0.540551607674552	-1.46479028043631	-2.81815264441403	
2015/06/25 15:39:24.654	-0.0667125066176065	-0.541633432106189	-1.46479028043631	-2.81815264441403	
2015/06/25 15:39:24.655	-0.070679196200275	-0.536945526235762	-1.46731453744346	-2.895683395348	
2015/06/25 15:39:24.656	-0.0681549391931223	-0.555336541573589	-1.48137825505474	-2.94941400878596	
2015/06/25 15:39:24.677	-0.0710398043441539	-0.554615325285831	-1.48859041793232	-2.96023225310233	
2015/06/25 15:39:24.678	-0.0757277102145803	-0.554615325285831	-1.48786920164456	-3.05146611350371	
2015/06/25 15:39:24.679	-0.0728428450635487	-0.556418366005226	-1.48678737721293	-3.12935747258156	
2015/06/25 15:39:24.680	-0.078251967221733	-0.549566811271526	-1.48678737721293	-3.12935747258156	
2015/06/25 15:39:24.681	-0.0800550079411278	-0.5585820148685	-1.48678737721293	-3.12935747258156	
2015/06/25 15:39:24.682	-0.0735640613513066	-0.558221406724621	-1.48678737721293	-3.12935747258156	
2015/06/25 15:39:24.683	-0.0739246694951856	-0.554615325285831	-1.48678737721293	-3.12935747258156	
2015/06/25 15:39:24.684	-0.0753671020707014	-0.555697149717468	-1.48678737721293	-3.12935747258156	
2015/06/25 15:39:24.685	-0.0778913590778541	-0.556057757861347	-1.4820994713425	-3.1167361875458	
2015/06/25 15:39:24.685	-0.078612575365612	-0.56182748816341	-1.48354190391802	-3.0395660447557	
2015/06/25 15:39:24.686	-0.0800550079411278	-0.559303231156258	-1.47849338990371	-3.01540529911581	
2015/06/25 15:39:24.687	-0.0757277102145803	-0.560385055587894	-1.48173886319862	-2.99809610820962	
2015/06/25 15:39:24.688	-0.0811368323727646	-0.55497593342971	-1.47596913289656	-2.90433799080109	
2015/06/25 15:39:24.689	-0.0833004812360384	-0.557139582292984	-1.4752479166088	-2.8596225809601	
2015/06/25 15:39:24.690	-0.0807762242288857	-0.561466880019531	-1.47560852475268	-2.84123156562228	
2015/06/25 15:39:24.691	-0.0746458857829435	-0.560385055587894	-1.47560852475268	-2.84123156562228	
2015/06/25 15:39:24.692	-0.0681549391931223	-0.555697149717468	-1.47560852475268	-2.84123156562228	
2015/06/25 15:39:24.693	-0.0674337229053644	-0.552812284566436	-1.46370845600467	-2.78930399290371	
2015/06/25 15:39:24.694	-0.0663518984737275	-0.559663839300137	-1.46767514558734	-2.79507372320577	
2015/06/25 15:39:24.695	-0.0645488577543327	-0.553894108998073	-1.46551149672407	-2.89748643606739	
2015/06/25 15:39:24.696	-0.0692367636247592	-0.555336541573589	-1.46370845600467	-2.98222934987895	
2015/06/25 15:39:24.697	-0.0714004124880329	-0.555697149717468	-1.46659332115571	-3.01756894797909	
2015/06/25 15:39:24.698	-0.0681549391931223	-0.548845594983768	-1.46731453744346	-3.04894185649656	
2015/06/25 15:39:24.699	-0.0645488577543327	-0.558221406724621	-1.46731453744346	-3.04894185649656	
2015/06/25 15:39:24.700	-0.0710398043441539	-0.55497593342971	-1.46731453744346	-3.04894185649656	
2015/06/25 15:39:24.701	-0.070318588056396	-0.550648635703163	-1.46406906414855	-3.18669416745832	
2015/06/25 15:39:24.702	-0.0699579799125171	-0.552451676422557	-1.47056001073837	-3.20977308866657	
2015/06/25 15:39:24.703	-0.0670731147614854	-0.553172892710315	-1.47056001073837	-3.20977308866657	
2015/06/25 15:39:24.704	-0.0714004124880329	-0.551009243847042	-1.47056001073837	-3.20977308866657	
2015/06/25 15:39:24.705	-0.0659912903298486	-0.554254717141952	-1.47056001073837	-3.20977308866657	
2015/06/25 15:39:24.706	-0.0638276414665748	-0.550288027559284	-1.47056001073837	-3.20977308866657	
2015/06/25 15:39:24.707	-0.0732034532074277	-0.547763770552131	-1.47488730846492	-3.02153563756175	
2015/06/25 15:39:24.708	-0.0641882496104538	-0.553172892710315	-1.46479028043631	-2.9180411002685	
2015/06/25 15:39:24.709	-0.0656306821859696	-0.555336541573589	-1.46406906414855	-2.85998318910398	
2015/06/25 15:39:24.710	-0.0667125066176065	-0.550288027559284	-1.4683963618751	-2.82067690142118	
2015/06/25 15:39:24.711	-0.0656306821859696	-0.562548704451168	-1.46983879445062	-2.80877683267317	
2015/06/25 15:39:24.712	-0.0721216287757908	-0.5585820148685	-1.4701994025945	-2.79363129063026	
2015/06/25 15:39:24.713	-0.0742852776390645	-0.55497593342971	-1.47452670032104	-2.76442203097606	
2015/06/25 15:39:24.714	-0.0771701427900961	-0.558942623012379	-1.47560852475268	-2.79182824991086	
2015/06/25 15:39:24.715	-0.0753671020707014	-0.559663839300137	-1.47777217361595	-2.87080143342035	
2015/06/25 15:39:24.716	-0.0804156160850067	-0.560385055587894	-1.4752479166088	-2.89928947678679	
2015/06/25 15:39:24.717	-0.0764489265023382	-0.556418366005226	-1.47632974104044	-2.94580792734717	
2015/06/25 15:39:24.718	-0.078251967221733	-0.559663839300137	-1.47056001073837	-2.97032928113094	
2015/06/25 15:39:24.719	-0.0746458857829435	-0.547763770552131	-1.46983879445062	-3.1217847015601	
2015/06/25 15:39:24.720	-0.0732034532074277	-0.552451676422557	-1.46911757816286	-3.14630605534387	
2015/06/25 15:39:24.721	-0.0717610206319118	-0.554615325285831	-1.46911757816286	-3.14342119019284	
2015/06/25 15:39:24.722	-0.0750064939268224	-0.547042554264373	-1.46587210486795	-3.16794254397661	
2015/06/25 15:39:24.723	-0.0768095346462172	-0.551369851990921	-1.46875697001898	-3.19751241177468	
2015/06/25 15:39:24.724	-0.0735640613513066	-0.553533500854194	-1.46515088858019	-3.18272747787565	
2015/06/25 15:39:24.725	-0.0732034532074277	-0.542354648393947	-1.4633478478608	-3.16000916481127	
2015/06/25 15:39:24.726	-0.070318588056396	-0.531897012221457	-1.4615448071414	-3.04425395062613	
2015/06/25 15:39:24.726	-0.0634670333226959	-0.536945526235762	-1.45938115827813	-3.00134158150453	
2015/06/25 15:39:24.727	-0.0652700740420907	-0.526127281919394	-1.45721750941485	-2.92200778985116	
2015/06/25 15:39:24.728	-0.0681549391931223	-0.536224309948005	-1.45361142797606	-2.88702879989491	
2015/06/25 15:39:24.729	-0.0652700740420907	-0.530093971502062	-1.45361142797606	-2.88702879989491	
2015/06/25 15:39:24.730	-0.0634670333226959	-0.525766673775515	-1.45361142797606	-2.88702879989491	
2015/06/25 15:39:24.731	-0.0573366948767537	-0.516030253890783	-1.45361142797606	-2.88702879989491	
2015/06/25 15:39:24.732	-0.0634670333226959	-0.515309037603025	-1.45361142797606	-2.88702879989491	
2015/06/25 15:39:24.733	-0.0602215600277853	-0.51350599688363	-1.46046298270976	-2.77415845086079	
2015/06/25 15:39:24.734	-0.0613033844594222	-0.509178699157083	-1.45325081983218	-2.7792069648751	
2015/06/25 15:39:24.735	-0.0537306134379641	-0.505212009574414	-1.45361142797606	-2.93030177716038	
2015/06/25 15:39:24.736	-0.0598609518839064	-0.496196805977441	-1.45072656282503	-2.96023225310233	
2015/06/25 15:39:24.737	-0.0526487890063273	-0.498360454840714	-1.45361142797606	-2.95518373908803	
2015/06/25 15:39:24.738	-0.0508457482869325	-0.494033157114167	-1.45180838725667	-3.0482206402088	
2015/06/25 15:39:24.739	-0.0526487890063273	-0.488984643099862	-1.45180838725667	-3.0482206402088	
2015/06/25 15:39:24.740	-0.0558942623012379	-0.486820994236588	-1.44892352210564	-3.15135456935818	
2015/06/25 15:39:24.741	-0.0490427075675377	-0.490066467531498	-1.44856291396176	-3.14450301462448	
2015/06/25 15:39:24.742	-0.0501245319991746	-0.478887615071251	-1.45036595468115	-3.18344869416341	
2015/06/25 15:39:24.743	-0.0497639238552956	-0.478527006927372	-1.45072656282503	-3.20328214207675	
2015/06/25 15:39:24.744	-0.0490427075675377	-0.474920925488582	-1.45072656282503	-3.20328214207675	
2015/06/25 15:39:24.745	-0.0494033157114167	-0.470233019618156	-1.45072656282503	-3.20328214207675	
2015/06/25 15:39:24.746	-0.0432729772654745	-0.465905721891609	-1.45072656282503	-3.20328214207675	
2015/06/25 15:39:24.747	-0.0421911528338376	-0.463020856740577	-1.45072656282503	-3.20328214207675	
2015/06/25 15:39:24.748	-0.0443548016971113	-0.462299640452819	-1.44964473839339	-2.8733256904275	
2015/06/25 15:39:24.749	-0.0403881121144428	-0.464463289316093	-1.45613568498322	-2.82320115842833	
2015/06/25 15:39:24.750	-0.0421911528338376	-0.452563220568087	-1.45793872570261	-2.81130108968032	
2015/06/25 15:39:24.751	-0.0357002062440164	-0.450038963560935	-1.45541446869546	-2.80841622452929	
2015/06/25 15:39:24.752	-0.0385850713950481	-0.452202612424208	-1.45433264426382	-2.77884635673122	
2015/06/25 15:39:24.753	-0.0382244632511691	-0.45148139613645	-1.45721750941485	-2.76947054499037	
2015/06/25 15:39:24.754	-0.0400275039705639	-0.44138436810784	-1.45721750941485	-2.76947054499037	
2015/06/25 15:39:24.755	-0.0328153410929848	-0.43777828666905	-1.45721750941485	-2.76947054499037	
2015/06/25 15:39:24.756	-0.0331759492368638	-0.439220719244566	-1.4564962931271	-2.92345022242668	
2015/06/25 15:39:24.757	-0.0299304759419532	-0.442105584395598	-1.46082359085364	-2.94075941333287	
2015/06/25 15:39:24.758	-0.0328153410929848	-0.443908625114992	-1.46082359085364	-3.03307509816588	
2015/06/25 15:39:24.759	-0.0324547329491059	-0.438860111100687	-1.46479028043631	-3.10663915951719	
2015/06/25 15:39:24.760	-0.0364214225317744	-0.437057070381292	-1.45793872570261	-3.14017571689793	
2015/06/25 15:39:24.761	-0.0302910840858321	-0.436696462237413	-1.45793872570261	-3.14017571689793	
2015/06/25 15:39:24.762	-0.0317335166613479	-0.430566123791471	-1.45793872570261	-3.14017571689793	
2015/06/25 15:39:24.763	-0.03101230037359	-0.437417678525171	-1.45721750941485	-3.18849720817771	
2015/06/25 15:39:24.764	-0.0331759492368638	-0.431287340079229	-1.45865994199037	-3.18453051859504	
2015/06/25 15:39:24.765	-0.0284880433664374	-0.428041866784318	-1.45685690127097	-3.09690273963246	
2015/06/25 15:39:24.766	-0.0212758804888583	-0.432008556366987	-1.45865994199037	-3.03343570630976	
2015/06/25 15:39:24.767	-0.0245213537837689	-0.422993352770013	-1.447841697674	-3.00963556881375	
2015/06/25 15:39:24.768	-0.0216364886327372	-0.43092673193535	-1.45433264426382	-2.9299411690165	
2015/06/25 15:39:24.768	-0.0140637176112792	-0.427681258640439	-1.4564962931271	-2.89460157091636	
2015/06/25 15:39:24.769	-0.0194728397694635	-0.424796393489408	-1.45252960354443	-2.82500419914773	
2015/06/25 15:39:24.770	-0.0176697990500687	-0.420829703906739	-1.45252960354443	-2.82500419914773	
2015/06/25 15:39:24.771	-0.0198334479133425	-0.419747879475102	-1.45325081983218	-2.80625257566602	
2015/06/25 15:39:24.772	-0.0205546642011004	-0.428402474928197	-1.45180838725667	-2.79940102093232	
2015/06/25 15:39:24.773	-0.015866758330674	-0.423714569057771	-1.45180838725667	-2.79940102093232	
2015/06/25 15:39:24.774	-0.0093758117408528	-0.418666055043466	-1.45541446869546	-2.82500419914773	
2015/06/25 15:39:24.775	-0.00757277102145803	-0.421190312050618	-1.45793872570261	-2.94328367034002	
2015/06/25 15:39:24.776	-0.0122606768918844	-0.42407517720165	-1.45793872570261	-2.94328367034002	
2015/06/25 15:39:24.777	-0.0198334479133425	-0.430205515647592	-1.45938115827813	-2.98078691730343	
2015/06/25 15:39:24.778	-0.0198334479133425	-0.429844907503713	-1.46046298270976	-3.06048131710068	
2015/06/25 15:39:24.779	-0.0230789212082531	-0.437057070381292	-1.46623271301183	-3.14017571689793	
2015/06/25 15:39:24.780	-0.0147849338990371	-0.442826800683355	-1.46623271301183	-3.14017571689793	
2015/06/25 15:39:24.781	-0.0147849338990371	-0.445351057690508	-1.46659332115571	-3.17587592314195	
2015/06/25 15:39:24.782	-0.0137031094674003	-0.450038963560935	-1.46659332115571	-3.17587592314195	
2015/06/25 15:39:24.783	-0.0180304071939477	-0.459054167157908	-1.46659332115571	-3.17587592314195	
2015/06/25 15:39:24.784	-0.023800137496011	-0.457611734582393	-1.46659332115571	-3.17587592314195	
2015/06/25 15:39:24.785	-0.0270456107909215	-0.469511803330398	-1.46659332115571	-3.17587592314195	
2015/06/25 15:39:24.786	-0.0216364886327372	-0.467348154467124	-1.47344487588941	-3.05182672164759	
2015/06/25 15:39:24.787	-0.0302910840858321	-0.473839101056945	-1.48065703876698	-3.04605699134552	
2015/06/25 15:39:24.788	-0.0292092596541953	-0.478527006927372	-1.47128122702613	-2.96347772639724	
2015/06/25 15:39:24.789	-0.0259637863592847	-0.482133088366161	-1.46659332115571	-2.85204980993865	
2015/06/25 15:39:24.790	-0.0209152723449793	-0.474920925488582	-1.46190541528528	-2.84844372849986	
2015/06/25 15:39:24.791	-0.0281274352225584	-0.479969439502888	-1.46803575373122	-2.83005271316203	
2015/06/25 15:39:24.792	-0.0263243945031636	-0.483575520941677	-1.46190541528528	-2.8322163620253	
2015/06/25 15:39:24.793	-0.0284880433664374	-0.485739169804951	-1.47128122702613	-2.80444953494662	
2015/06/25 15:39:24.794	-0.0302910840858321	-0.488984643099862	-1.46695392929958	-2.78894338475983	
2015/06/25 15:39:24.795	-0.0328153410929848	-0.496196805977441	-1.47344487588941	-2.81562838740687	
2015/06/25 15:39:24.796	-0.0411093284022008	-0.503048360711141	-1.4839025120619	-2.95626556351966	
2015/06/25 15:39:24.797	-0.0429123691215955	-0.50665444214993	-1.48534494463741	-2.97609901143301	
2015/06/25 15:39:24.798	-0.0382244632511691	-0.504851401430536	-1.48173886319862	-3.04353273433837	
2015/06/25 15:39:24.799	-0.0385850713950481	-0.505572617718293	-1.4770509573282	-3.09257544190591	
2015/06/25 15:39:24.800	-0.0411093284022008	-0.509539307300962	-1.47849338990371	-3.13981510875405	
2015/06/25 15:39:24.801	-0.046879058704264	-0.514587821315267	-1.47849338990371	-3.17082740912764	
2015/06/25 15:39:24.802	-0.0479608831359009	-0.51350599688363	-1.47957521433535	-3.16686071954497	
2015/06/25 15:39:24.803	-0.0436335854093534	-0.517833294610178	-1.47596913289656	-3.20147910135735	
2015/06/25 15:39:24.804	-0.0421911528338376	-0.524324241199999	-1.47344487588941	-3.18489112673892	
2015/06/25 15:39:24.805	-0.0494033157114167	-0.521439376048967	-1.4752479166088	-3.1149331468264	
2015/06/25 15:39:24.806	-0.05517304601348	-0.531175795933699	-1.47669034918432	-3.04713881577716	
2015/06/25 15:39:24.807	-0.062385208891059	-0.540551607674552	-1.47669034918432	-3.04713881577716	
2015/06/25 15:39:24.808	-0.0710398043441539	-0.544518297257221	-1.47669034918432	-3.04713881577716	
2015/06/25 15:39:24.809	-0.0645488577543327	-0.547042554264373	-1.47669034918432	-3.04713881577716	
2015/06/25 15:39:24.810	-0.0641882496104538	-0.541633432106189	-1.47921460619147	-2.81490717111911	
2015/06/25 15:39:24.810	-0.0663518984737275	-0.547042554264373	-1.47777217361595	-2.81671021183851	
2015/06/25 15:39:24.811	-0.070318588056396	-0.553172892710315	-1.48029643062311	-2.79471311506189	
2015/06/25 15:39:24.812	-0.0717610206319118	-0.559663839300137	-1.48462372834965	-2.78317365445777	
2015/06/25 15:39:24.813	-0.0771701427900961	-0.563991137026684	-1.48462372834965	-2.78317365445777	
2015/06/25 15:39:24.814	-0.0699579799125171	-0.563991137026684	-1.48462372834965	-2.78317365445777	
2015/06/25 15:39:24.815	-0.0760883183584593	-0.566515394033837	-1.48462372834965	-2.78317365445777	
2015/06/25 15:39:24.816	-0.0742852776390645	-0.569760867328747	-1.48462372834965	-2.78317365445777	
2015/06/25 15:39:24.817	-0.0789731835094909	-0.571924516192021	-1.48462372834965	-2.9728535381381	
2015/06/25 15:39:24.818	-0.0742852776390645	-0.568318434753231	-1.48678737721293	-3.08356023830893	
2015/06/25 15:39:24.819	-0.0753671020707014	-0.571203299904263	-1.4820994713425	-3.14991213678266	
2015/06/25 15:39:24.820	-0.0829398730921594	-0.575169989486932	-1.4820994713425	-3.16217281367455	
2015/06/25 15:39:24.821	-0.078251967221733	-0.583824584940026	-1.4820994713425	-3.16217281367455	
2015/06/25 15:39:24.822	-0.0865459545309489	-0.581660936076753	-1.47849338990371	-3.18236686973177	
2015/06/25 15:39:24.823	-0.0959217662718018	-0.592839788537	-1.48498433649353	-3.22203376555845	
2015/06/25 15:39:24.824	-0.0905126441136174	-0.588151882666574	-1.48498433649353	-3.22203376555845	
2015/06/25 15:39:24.825	-0.0901520359697385	-0.587070058234937	-1.48137825505474	-3.12647260743053	
2015/06/25 15:39:24.826	-0.0923156848330122	-0.59644586997579	-1.48246007948638	-3.02550232714442	
2015/06/25 15:39:24.827	-0.102052104717744	-0.598970126982943	-1.47921460619147	-3.02297807013727	
2015/06/25 15:39:24.828	-0.0948399418401649	-0.596085261831911	-1.48065703876698	-2.9025349500817	
2015/06/25 15:39:24.829	-0.094118725552407	-0.596806478119669	-1.48534494463741	-2.85673771580907	
2015/06/25 15:39:24.830	-0.0977248069911965	-0.597167086263548	-1.48426312020577	-2.83834670047125	
2015/06/25 15:39:24.831	-0.0984460232789544	-0.598609518839064	-1.48137825505474	-2.83149514573755	
2015/06/25 15:39:24.832	-0.101330888429986	-0.605461073572764	-1.48173886319862	-2.7723554101414	
2015/06/25 15:39:24.834	-0.100970280286107	-0.593921612968637	-1.47813278175983	-2.80156466979559	
2015/06/25 15:39:24.835	-0.0905126441136174	-0.5996913432707	-1.48246007948638	-2.87368629857138	
2015/06/25 15:39:24.836	-0.104576361724897	-0.601854992133974	-1.48101764691086	-2.94905340064209	
2015/06/25 15:39:24.837	-0.100249063998349	-0.59644586997579	-1.48318129577414	-2.97068988927482	
2015/06/25 15:39:24.838	-0.0955611581279228	-0.597167086263548	-1.48534494463741	-3.04245090990673	
2015/06/25 15:39:24.839	-0.0991672395667123	-0.592839788537	-1.48534494463741	-3.04245090990673	
2015/06/25 15:39:24.840	-0.0995278477105913	-0.595003437400274	-1.48786920164456	-3.14630605534387	
2015/06/25 15:39:24.841	-0.0998884558544703	-0.60329742470949	-1.48318129577414	-3.16109098924291	
2015/06/25 15:39:24.842	-0.102412712861623	-0.608345938723795	-1.48606616092517	-3.18344869416341	
2015/06/25 15:39:24.843	-0.105658186156534	-0.601854992133974	-1.48606616092517	-3.18344869416341	
2015/06/25 15:39:24.844	-0.102052104717744	-0.607985330579916	-1.4839025120619	-3.18272747787565	
2015/06/25 15:39:24.845	-0.100249063998349	-0.605461073572764	-1.48318129577414	-3.15351821822145	
2015/06/25 15:39:24.846	-0.0980854151350755	-0.607985330579916	-1.48318129577414	-3.15351821822145	
2015/06/25 15:39:24.847	-0.105297578012655	-0.607264114292159	-1.48426312020577	-2.99196576976368	
2015/06/25 15:39:24.848	-0.105297578012655	-0.609067155011553	-1.48065703876698	-2.93571089931856	
2015/06/25 15:39:24.849	-0.104215753581018	-0.602215600277853	-1.48065703876698	-2.93571089931856	
2015/06/25 15:39:24.850	-0.10349453729326	-0.603658032853369	-1.48065703876698	-2.93571089931856	
2015/06/25 15:39:24.851	-0.108182443163686	-0.609427763155432	-1.48065703876698	-2.93571089931856	
2015/06/25 15:39:24.851	-0.102052104717744	-0.610509587587069	-1.48065703876698	-2.93571089931856	
2015/06/25 15:39:24.852	-0.104576361724897	-0.60690350614828	-1.48065703876698	-2.93571089931856	
2015/06/25 15:39:24.853	-0.102412712861623	-0.606542898004401	-1.48065703876698	-2.93571089931856	
2015/06/25 15:39:24.854	-0.101691496573865	-0.610509587587069	-1.47128122702613	-2.7723554101414	
2015/06/25 15:39:24.855	-0.101330888429986	-0.605100465428885	-1.47885399804759	-2.85060737736313	
2015/06/25 15:39:24.856	-0.105297578012655	-0.604379249141127	-1.47885399804759	-2.85060737736313	
2015/06/25 15:39:24.857	-0.103133929149381	-0.61014897944319	-1.47344487588941	-2.98511421502998	
2015/06/25 15:39:24.858	-0.102412712861623	-0.609788371299311	-1.47741156547207	-3.07418442656808	
2015/06/25 15:39:24.859	-0.104936969868776	-0.612312628306464	-1.47596913289656	-3.11168767353149	
2015/06/25 15:39:24.860	-0.100609672142228	-0.607624722436037	-1.47849338990371	-3.14774848791939	
2015/06/25 15:39:24.861	-0.100970280286107	-0.60329742470949	-1.47813278175983	-3.16289402996231	
2015/06/25 15:39:24.862	-0.102412712861623	-0.598970126982943	-1.47200244331389	-3.19426693847977	
2015/06/25 15:39:24.863	-0.11034609202696	-0.604739857285006	-1.47344487588941	-3.21229734567372	
2015/06/25 15:39:24.864	-0.110706700170839	-0.605461073572764	-1.46695392929958	-3.06156314153232	
2015/06/25 15:39:24.866	-0.102052104717744	-0.600773167702337	-1.47128122702613	-3.03668117960467	
2015/06/25 15:39:24.867	-0.105297578012655	-0.608345938723795	-1.47056001073837	-3.01937198869848	
2015/06/25 15:39:24.868	-0.104936969868776	-0.606182289860522	-1.46983879445062	-2.9591504286707	
2015/06/25 15:39:24.869	-0.103133929149381	-0.606542898004401	-1.47560852475268	-2.86755596012544	
2015/06/25 15:39:24.870	-0.108182443163686	-0.608706546867674	-1.46623271301183	-2.84736190406822	
2015/06/25 15:39:24.871	-0.117558254904539	-0.611952020162585	-1.46659332115571	-2.83365879460082	
2015/06/25 15:39:24.872	-0.112509740890234	-0.605821681716643	-1.47164183517001	-2.79002520919147	
2015/06/25 15:39:24.873	-0.11034609202696	-0.604018640997248	-1.47308426774553	-2.78317365445777	
2015/06/25 15:39:24.874	-0.109264267595323	-0.607985330579916	-1.46947818630674	-2.7997616290762	
2015/06/25 15:39:24.875	-0.108903659451444	-0.604018640997248	-1.47092061888225	-2.82392237471609	
2015/06/25 15:39:24.876	-0.103855145437139	-0.604018640997248	-1.46731453744346	-2.93751394003796	
2015/06/25 15:39:24.877	-0.108543051307565	-0.607624722436037	-1.47164183517001	-2.96492015897276	
2015/06/25 15:39:24.878	-0.100970280286107	-0.5996913432707	-1.48173886319862	-2.98908090461265	
2015/06/25 15:39:24.879	-0.109624875739202	-0.598248910695185	-1.46767514558734	-3.12755443186217	
2015/06/25 15:39:24.880	-0.104936969868776	-0.600773167702337	-1.46767514558734	-3.12755443186217	
2015/06/25 15:39:24.881	-0.106379402444291	-0.601133775846216	-1.47380548403328	-3.16686071954497	
2015/06/25 15:39:24.882	-0.105658186156534	-0.604018640997248	-1.4701994025945	-3.16758193583273	
2015/06/25 15:39:24.883	-0.12080372819945	-0.613394452738101	-1.4701994025945	-3.16758193583273	
2015/06/25 15:39:24.884	-0.12404920149436	-0.62060661561568	-1.4701994025945	-3.16758193583273	
2015/06/25 15:39:24.885	-0.127294674789271	-0.62385208891059	-1.48570555278129	-3.09257544190591	
2015/06/25 15:39:24.886	-0.130179539940302	-0.631424859932048	-1.49183589122723	-3.00819313623823	
2015/06/25 15:39:24.887	-0.131982580659697	-0.638637022809627	-1.49183589122723	-3.00422644665557	
2015/06/25 15:39:24.888	-0.138473527249518	-0.635391549514717	-1.49796622967317	-2.95446252280027	
2015/06/25 15:39:24.889	-0.138834135393397	-0.645127969399449	-1.49796622967317	-2.95446252280027	
2015/06/25 15:39:24.890	-0.14135839240055	-0.659191687010728	-1.49796622967317	-2.95446252280027	
2015/06/25 15:39:24.891	-0.146767514558734	-0.667125066176065	-1.49796622967317	-2.95446252280027	
2015/06/25 15:39:24.892	-0.155422110011829	-0.682991824506739	-1.50157231111196	-2.70528229537991	
2015/06/25 15:39:24.893	-0.160831232170013	-0.692728244391471	-1.51022690656506	-2.67390938686244	
2015/06/25 15:39:24.893	-0.170207043910866	-0.692367636247592	-1.50229352739972	-2.66633661584099	
2015/06/25 15:39:24.894	-0.162634272889408	-0.694891893254744	-1.50734204141403	-2.69843074064621	
2015/06/25 15:39:24.895	-0.164076705464924	-0.704267704995597	-1.50734204141403	-2.69843074064621	
2015/06/25 15:39:24.896	-0.167322178759835	-0.703907096851718	-1.50734204141403	-2.69843074064621	
2015/06/25 15:39:24.897	-0.166600962472077	-0.695613109542502	-1.50734204141403	-2.69843074064621	
2015/06/25 15:39:24.898	-0.167322178759835	56.014849664551	-1.49003285050784	-2.87945602887345	
2015/06/25 15:39:24.899	-0.157946367018982	-0.684794865226134	-1.48931163422008	-2.96023225310233	
2015/06/25 15:39:24.900	-0.152537244860798	-0.663879592881154	-1.4683963618751	-3.0053082710872	
2015/06/25 15:39:24.901	-0.135228053954608	-0.647652226406601	-1.45902055013425	-3.00494766294332	
2015/06/25 15:39:24.902	-0.126573458501513	-0.619524791184043	-1.447841697674	-3.02874780043933	
2015/06/25 15:39:24.903	-0.101330888429986	-0.578776070925721	-1.447841697674	-3.02874780043933	
2015/06/25 15:39:24.904	-0.0865459545309489	-0.533339444796973	-1.447841697674	-3.02874780043933	
2015/06/25 15:39:24.905	-0.0562548704451168	-0.486820994236588	-1.38942317836561	-2.92164718170728	
2015/06/25 15:39:24.906	-0.0216364886327372	-0.419387271331224	-1.37427763632269	-2.88270150216836	
2015/06/25 15:39:24.907	0.00396668958266849	-0.366738482324896	-1.35444418840935	-2.88486515103163	
2015/06/25 15:39:24.908	0.0504851401430536	-0.294256245405226	-1.32703796947455	-2.81562838740687	
2015/06/25 15:39:24.909	0.0814974405166436	-0.215643670039614	-1.30504087269793	-2.77956757301898	
2015/06/25 15:39:24.910	0.116115822329023	-0.152537244860798	-1.28051951891417	-2.78137061373837	
2015/06/25 15:39:24.911	0.153979677436313	-0.0739246694951856	-1.25924363842531	-2.79687676392517	
2015/06/25 15:39:24.912	0.196892046557909	-0.00360608143878954	-1.24554052895791	-2.7997616290762	
2015/06/25 15:39:24.913	0.22754373878762	0.0728428450635487	-1.2267889054762	-2.82211933399669	
2015/06/25 15:39:24.914	0.271177324196973	0.148570555278129	-1.22931316248335	-2.8322163620253	
2015/06/25 15:39:24.915	0.302910840858321	0.206267858298762	-1.21705248559147	-2.94328367034002	
2015/06/25 15:39:24.916	0.329956451649243	0.272619756772489	-1.20407059241183	-3.06336618225171	
2015/06/25 15:39:24.917	0.354838413576891	0.318416991045116	-1.20443120055571	-3.10916341652434	
2015/06/25 15:39:24.918	0.380802199936175	0.36205057645447	-1.21164336343329	-3.19426693847977	
2015/06/25 15:39:24.919	0.389096187245391	0.377196118497386	-1.21524944487207	-3.25340667407592	
2015/06/25 15:39:24.920	0.413256932885281	0.419747879475102	-1.21524944487207	-3.25340667407592	
2015/06/25 15:39:24.921	0.432008556366987	0.438860111100687	-1.2217403914619	-3.39115898503768	
2015/06/25 15:39:24.922	0.426960042352682	0.452202612424208	-1.22967377062723	-3.40017418863466	
2015/06/25 15:39:24.923	0.43453281337414	0.438860111100687	-1.26140728728858	-3.44416838218789	
2015/06/25 15:39:24.924	0.423714569057771	0.420108487618981	-1.26140728728858	-3.44416838218789	
2015/06/25 15:39:24.925	0.416502406180192	0.390538619820907	-1.26140728728858	-3.44416838218789	
2015/06/25 15:39:24.926	0.391981052396423	0.345101993692159	-1.26140728728858	-3.44416838218789	
2015/06/25 15:39:24.927	0.373229428914717	0.283438001088858	-1.36165635128693	-3.29271296175873	
2015/06/25 15:39:24.928	0.343659561116643	0.217807318902888	-1.36165635128693	-3.29271296175873	
2015/06/25 15:39:24.929	0.30687753044099	0.138834135393397	-1.45865994199037	-3.09293605004979	
2015/06/25 15:39:24.930	0.274062189348005	0.054812437869601	-1.45865994199037	-3.09293605004979	
2015/06/25 15:39:24.931	0.235837726096836	-0.0331759492368638	-1.51707846129876	-3.0601207089568	
2015/06/25 15:39:24.932	0.182107112658872	-0.125852242213755	-1.51707846129876	-3.0601207089568	
2015/06/25 15:39:24.933	0.137031094674003	-0.223577049204951	-1.51707846129876	-3.0601207089568	
2015/06/25 15:39:24.934	0.104936969868776	-0.311565436311416	-1.51707846129876	-3.0601207089568	
2015/06/25 15:39:24.935	0.0674337229053644	-0.384768889518844	-1.51707846129876	-3.0601207089568	
2015/06/25 15:39:24.935	0.0306516922297111	-0.460857207877303	-1.51707846129876	-3.0601207089568	
2015/06/25 15:39:24.936	-0.00288486515103163	-0.521799984192846	-1.66673084100853	-3.06625104740275	
2015/06/25 15:39:24.937	-0.0259637863592847	-0.574809381343053	-1.68620368077799	-3.06120253338844	
2015/06/25 15:39:24.938	-0.0486820994236588	-0.618442966752406	-1.68908854592902	-3.11853922826519	
2015/06/25 15:39:24.939	-0.0645488577543327	-0.649455267125996	-1.69197341108005	-3.21157612938596	
2015/06/25 15:39:24.940	-0.0778913590778541	-0.662076552161759	-1.68800672149738	-3.23032775286767	
2015/06/25 15:39:24.941	-0.0991672395667123	-0.688761554808802	-1.68115516676368	-3.22491863070949	
2015/06/25 15:39:24.942	-0.107100618732049	-0.701743447988444	-1.67466422017386	-3.23357322616258	
2015/06/25 15:39:24.943	-0.104936969868776	-0.723740544765061	-1.67069753059119	-3.25701275551471	
2015/06/25 15:39:24.944	-0.10349453729326	-0.739607303095735	-1.65014286639009	-3.26350370210453	
2015/06/25 15:39:24.945	-0.118640079336176	-0.743934600822282	-1.64184887908088	-3.1441424064806	
2015/06/25 15:39:24.946	-0.121524944487207	-0.742492168246766	-1.62850637775736	-3.09365726633755	
2015/06/25 15:39:24.947	-0.116837038616781	-0.751867979987619	-1.61588509272159	-3.07851172429463	
2015/06/25 15:39:24.948	-0.120082511911692	-0.748983114836587	-1.6003789425348	-2.97501718700137	
2015/06/25 15:39:24.949	-0.11719764676066	-0.754031628850893	-1.59424860408886	-2.9317442097359	
2015/06/25 15:39:24.950	-0.119000687480055	-0.769177170893809	-1.58451218420412	-2.92561387128995	
2015/06/25 15:39:24.951	-0.121885552631086	-0.764849873167261	-1.57621819689491	-2.90073190936231	
2015/06/25 15:39:24.952	-0.12765528293315	-0.75835892657744	-1.57189089916836	-2.8614256216795	
2015/06/25 15:39:24.953	-0.121524944487207	-0.755474061426409	-1.57333333174388	-2.8596225809601	
2015/06/25 15:39:24.954	-0.122246160774965	-0.755474061426409	-1.57333333174388	-2.8596225809601	
2015/06/25 15:39:24.955	-0.123327985206602	-0.757637710289682	-1.57333333174388	-2.8596225809601	
2015/06/25 15:39:24.956	-0.123688593350481	-0.743573992678403	-1.57333333174388	-2.8596225809601	
2015/06/25 15:39:24.957	-0.113591565321871	-0.736361829800824	-1.57333333174388	-2.8596225809601	
2015/06/25 15:39:24.958	-0.109624875739202	-0.721937504045666	-1.5318633951978	-3.05543280308638	
2015/06/25 15:39:24.959	-0.115394606041265	-0.717610206319118	-1.51779967758652	-3.18344869416341	
2015/06/25 15:39:24.960	-0.108543051307565	-0.704267704995597	-1.51563602872324	-3.18597295117056	
2015/06/25 15:39:24.961	-0.111067308314718	-0.706431353858871	-1.50770264955791	-3.20147910135735	
2015/06/25 15:39:24.962	-0.104215753581018	-0.692728244391471	-1.50301474368748	-3.24150660532792	
2015/06/25 15:39:24.963	-0.094118725552407	-0.684073648938376	-1.49796622967317	-3.22275498184621	
2015/06/25 15:39:24.964	-0.0915944685452543	-0.663879592881154	-1.4820994713425	-3.23285200987482	
2015/06/25 15:39:24.965	-0.0840216975237963	-0.648734050838238	-1.4820994713425	-3.23285200987482	
2015/06/25 15:39:24.966	-0.0721216287757908	-0.637194590234112	-1.47200244331389	-3.08572388717221	
2015/06/25 15:39:24.967	-0.0757277102145803	-0.629621819212654	-1.47272365960165	-3.04064786918734	
2015/06/25 15:39:24.968	-0.0764489265023382	-0.622409656335075	-1.47272365960165	-3.04064786918734	
2015/06/25 15:39:24.969	-0.0714004124880329	-0.61700053417689	-1.47272365960165	-3.04064786918734	
2015/06/25 15:39:24.970	-0.0613033844594222	-0.603658032853369	-1.47272365960165	-3.04064786918734	
2015/06/25 15:39:24.971	-0.0659912903298486	-0.604379249141127	-1.47272365960165	-3.04064786918734	
2015/06/25 15:39:24.972	-0.070318588056396	-0.592479180393121	-1.47272365960165	-3.04064786918734	
2015/06/25 15:39:24.973	-0.0609427763155432	-0.584906409371663	-1.47272365960165	-3.04064786918734	
2015/06/25 15:39:24.974	-0.0670731147614854	-0.592479180393121	-1.47128122702613	-2.78245243817001	
2015/06/25 15:39:24.975	-0.0638276414665748	-0.594282221112516	-1.47236305145777	-2.84303460634167	
2015/06/25 15:39:24.976	-0.0620246007471801	-0.586348841947179	-1.47777217361595	-2.90109251750618	
2015/06/25 15:39:24.976	-0.0674337229053644	-0.585267017515542	-1.48101764691086	-2.94436549477166	
2015/06/25 15:39:24.977	-0.0732034532074277	-0.586709450091058	-1.48354190391802	-2.96528076711664	
2015/06/25 15:39:24.978	-0.0685155473370013	-0.5859882338033	-1.48318129577414	-3.05903888452517	
2015/06/25 15:39:24.979	-0.0670731147614854	-0.585267017515542	-1.48318129577414	-3.05903888452517	
2015/06/25 15:39:24.980	-0.0695973717686381	-0.583463976796148	-1.48318129577414	-3.05903888452517	
2015/06/25 15:39:24.981	-0.0634670333226959	-0.5859882338033	-1.47777217361595	-3.16433646253782	
2015/06/25 15:39:24.982	-0.0714004124880329	-0.590315531529848	-1.48606616092517	-3.1784001801491	
2015/06/25 15:39:24.983	-0.0800550079411278	-0.582382152364511	-1.4889510260762	-3.19859423620632	
2015/06/25 15:39:24.984	-0.0793337916533699	-0.589233707098211	-1.49003285050784	-3.16361524625006	
2015/06/25 15:39:24.985	-0.0768095346462172	-0.592118572249242	-1.4820994713425	-3.06661165554662	
2015/06/25 15:39:24.986	-0.0714004124880329	-0.583463976796148	-1.4820994713425	-3.06661165554662	
2015/06/25 15:39:24.987	-0.0717610206319118	-0.576251813918568	-1.4820994713425	-3.06661165554662	
2015/06/25 15:39:24.988	-0.0721216287757908	-0.57553059763081	-1.48426312020577	-2.9093865048154	
2015/06/25 15:39:24.989	-0.0757277102145803	-0.577694246494084	-1.48678737721293	-2.85096798550701	
2015/06/25 15:39:24.990	-0.0714004124880329	-0.576612422062447	-1.48101764691086	-2.81021926524869	
2015/06/25 15:39:24.992	-0.0800550079411278	-0.578776070925721	-1.49003285050784	-2.79687676392517	
2015/06/25 15:39:24.993	-0.0814974405166436	-0.581300327932874	-1.49003285050784	-2.79687676392517	
2015/06/25 15:39:24.994	-0.0840216975237963	-0.578054854637963	-1.49003285050784	-2.79687676392517	
2015/06/25 15:39:24.995	-0.078251967221733	-0.579857895357358	-1.48354190391802	-2.85637710766519	
2015/06/25 15:39:24.996	-0.0847429138115542	-0.5859882338033	-1.48786920164456	-2.95590495537579	
2015/06/25 15:39:24.997	-0.08618534638707	-0.588151882666574	-1.48786920164456	-2.95590495537579	
2015/06/25 15:39:24.998	-0.0876277789625858	-0.590315531529848	-1.48786920164456	-2.95590495537579	
2015/06/25 15:39:24.999	-0.0829398730921594	-0.584906409371663	-1.48786920164456	-2.95590495537579	
2015/06/25 15:39:25.000	-0.0750064939268224	-0.57553059763081	-1.48786920164456	-2.95590495537579	
2015/06/25 15:39:25.001	-0.0800550079411278	-0.573006340623658	-1.48065703876698	-3.16974558469601	
2015/06/25 15:39:25.002	-0.0818580486605226	-0.576973030206326	-1.48065703876698	-3.20183970950123	
2015/06/25 15:39:25.003	-0.0771701427900961	-0.570482083616505	-1.4820994713425	-3.19102146518486	
2015/06/25 15:39:25.004	-0.0760883183584593	-0.572645732479779	-1.47777217361595	-3.21770646783191	
2015/06/25 15:39:25.005	-0.0775307509339751	-0.574809381343053	-1.48137825505474	-3.13296355402035	
2015/06/25 15:39:25.006	-0.0764489265023382	-0.57553059763081	-1.47921460619147	-3.05074489721595	
2015/06/25 15:39:25.007	-0.0811368323727646	-0.573006340623658	-1.47921460619147	-3.05074489721595	
2015/06/25 15:39:25.008	-0.0793337916533699	-0.567597218465474	-1.47741156547207	-2.99593245934635	
2015/06/25 15:39:25.009	-0.0836610893799173	-0.574088165055295	-1.48173886319862	-2.86394987868665	
2015/06/25 15:39:25.010	-0.0634670333226959	-0.569039651040989	-1.4752479166088	-2.82680723986712	
2015/06/25 15:39:25.011	-0.0569760867328747	-0.556418366005226	-1.47200244331389	-2.81562838740687	
2015/06/25 15:39:25.012	-0.0638276414665748	-0.5585820148685	-1.47452670032104	-2.78533730332104	
2015/06/25 15:39:25.013	-0.0685155473370013	-0.5585820148685	-1.47452670032104	-2.77596149158019	
2015/06/25 15:39:25.014	-0.0634670333226959	-0.555336541573589	-1.47128122702613	-2.76514324726382	
2015/06/25 15:39:25.015	-0.062745817034938	-0.558221406724621	-1.47993582247923	-2.79074642547922	
2015/06/25 15:39:25.016	-0.0587791274522695	-0.556418366005226	-1.47488730846492	-2.89171670576533	
2015/06/25 15:39:25.017	-0.062745817034938	-0.547042554264373	-1.4752479166088	-2.93066238530426	
2015/06/25 15:39:25.018	-0.0591397355961484	-0.54812437869601	-1.47560852475268	-2.96744441597991	
2015/06/25 15:39:25.018	-0.0573366948767537	-0.546321337976615	-1.48065703876698	-3.05795706009353	
2015/06/25 15:39:25.019	-0.0555336541573589	-0.551369851990921	-1.47957521433535	-3.10411490251004	
2015/06/25 15:39:25.020	-0.0620246007471801	-0.549927419415405	-1.47957521433535	-3.15207578564594	
2015/06/25 15:39:25.021	-0.0573366948767537	-0.544878905401099	-1.47669034918432	-3.16073038109903	
2015/06/25 15:39:25.022	-0.0540912215818431	-0.539469783242915	-1.47741156547207	-3.16577889511334	
2015/06/25 15:39:25.023	-0.0595003437400274	-0.533700052940852	-1.48101764691086	-3.17803957200522	
2015/06/25 15:39:25.024	-0.0540912215818431	-0.53442126922861	-1.47632974104044	-3.17587592314195	
2015/06/25 15:39:25.025	-0.0530093971502062	-0.542354648393947	-1.47488730846492	-3.1286362562938	
2015/06/25 15:39:25.026	-0.0522881808624483	-0.527930322638789	-1.47921460619147	-3.02045381313012	
2015/06/25 15:39:25.027	-0.0429123691215955	-0.528651538926547	-1.47921460619147	-3.02045381313012	
2015/06/25 15:39:25.028	-0.0501245319991746	-0.526487890063273	-1.47777217361595	-2.90974711295928	
2015/06/25 15:39:25.029	-0.0494033157114167	-0.532978836653094	-1.47777217361595	-2.90974711295928	
2015/06/25 15:39:25.030	-0.0364214225317744	-0.519996943473452	-1.47777217361595	-2.90974711295928	
2015/06/25 15:39:25.031	-0.0335365573807427	-0.518915119041815	-1.47777217361595	-2.90974711295928	
2015/06/25 15:39:25.032	-0.0331759492368638	-0.516390862034662	-1.47777217361595	-2.90974711295928	
2015/06/25 15:39:25.033	-0.0346183818123796	-0.516030253890783	-1.47164183517001	-2.80120406165171	
2015/06/25 15:39:25.034	-0.0331759492368638	-0.523603024912241	-1.47164183517001	-2.81310413039972	
2015/06/25 15:39:25.035	-0.0421911528338376	-0.512784780595873	-1.48101764691086	-2.91695927583686	
2015/06/25 15:39:25.036	-0.0328153410929848	-0.512784780595873	-1.48101764691086	-2.91695927583686	
2015/06/25 15:39:25.037	-0.0306516922297111	-0.504130185142778	-1.48101764691086	-2.91695927583686	
2015/06/25 15:39:25.038	-0.0248819619276478	-0.504130185142778	-1.48101764691086	-2.91695927583686	
2015/06/25 15:39:25.039	-0.0284880433664374	-0.507375658437688	-1.48101764691086	-2.91695927583686	
2015/06/25 15:39:25.040	-0.0281274352225584	-0.492590724538651	-1.4839025120619	-3.15027274492654	
2015/06/25 15:39:25.041	-0.0320941248052269	-0.494033157114167	-1.47957521433535	-3.17984261272462	
2015/06/25 15:39:25.042	-0.0248819619276478	-0.49655741412132	-1.47957521433535	-3.17984261272462	
2015/06/25 15:39:25.043	-0.0256031782154057	-0.491508900107014	-1.47632974104044	-3.20472457465226	
2015/06/25 15:39:25.044	-0.0209152723449793	-0.488984643099862	-1.47885399804759	-3.21806707597578	
2015/06/25 15:39:25.045	-0.0173091909061898	-0.487542210524346	-1.47416609217716	-3.20256092578899	
2015/06/25 15:39:25.046	-0.0151455420429161	-0.487181602380467	-1.47813278175983	-3.08860875232324	
2015/06/25 15:39:25.047	-0.0241607456398899	-0.486820994236588	-1.47957521433535	-3.04172969361898	
2015/06/25 15:39:25.048	-0.0169485827623108	-0.476363358064098	-1.47308426774553	-2.97032928113094	
2015/06/25 15:39:25.049	-0.0147849338990371	-0.478166398783493	-1.47308426774553	-2.97032928113094	
2015/06/25 15:39:25.050	-0.0129818931796423	-0.475281533632461	-1.48029643062311	-2.83690426789573	
2015/06/25 15:39:25.051	-0.0129818931796423	-0.478166398783493	-1.47993582247923	-2.82392237471609	
2015/06/25 15:39:25.052	-0.0162273664745529	-0.478527006927372	-1.48714798535681	-2.79146764176698	
2015/06/25 15:39:25.053	-0.0129818931796423	-0.46193903230894	-1.48498433649353	-2.78064939745061	
2015/06/25 15:39:25.054	-0.00721216287757908	-0.453284436855845	-1.48137825505474	-2.8253648072916	
2015/06/25 15:39:25.056	-0.00649094658982117	-0.452923828711966	-1.47849338990371	-2.94328367034002	
2015/06/25 15:39:25.057	-0.0046879058704264	-0.457972342726272	-1.48065703876698	-2.96744441597991	
2015/06/25 15:39:25.058	-0.00396668958266849	-0.452923828711966	-1.4770509573282	-3.01684773169133	
2015/06/25 15:39:25.059	0.00216364886327372	-0.45148139613645	-1.47957521433535	-3.08608449531609	
2015/06/25 15:39:25.060	-0.00288486515103163	-0.450038963560935	-1.47380548403328	-3.14486362276836	
2015/06/25 15:39:25.060	-0.00180304071939477	-0.443548016971113	-1.48173886319862	-3.16036977295515	
2015/06/25 15:39:25.061	0.000721216287757908	-0.442105584395598	-1.47452670032104	-3.17263044984704	
2015/06/25 15:39:25.062	0.00108182443163686	-0.441023759963961	-1.47092061888225	-3.20220031764511	
2015/06/25 15:39:25.063	0.00649094658982117	-0.432729772654745	-1.47092061888225	-3.20220031764511	
2015/06/25 15:39:25.064	0.0119000687480055	-0.431287340079229	-1.47092061888225	-3.18777599188995	
2015/06/25 15:39:25.065	0.00829398730921594	-0.426960042352682	-1.47632974104044	-3.09582091520082	
2015/06/25 15:39:25.066	0.0119000687480055	-0.429123691215955	-1.4770509573282	-3.04245090990673	
2015/06/25 15:39:25.067	0.00865459545309489	-0.422993352770013	-1.4770509573282	-3.04245090990673	
2015/06/25 15:39:25.068	0.0209152723449793	-0.417944838755708	-1.47560852475268	-2.9779020521524	
2015/06/25 15:39:25.069	0.0227183130643741	-0.405323553719944	-1.46623271301183	-2.88306211031224	
2015/06/25 15:39:25.070	0.0263243945031636	-0.404962945576065	-1.46623271301183	-2.88306211031224	
2015/06/25 15:39:25.071	0.0288486515103163	-0.406044770007702	-1.46623271301183	-2.88306211031224	
2015/06/25 15:39:25.072	0.0295698677980742	-0.38945679538927	-1.46623271301183	-2.88306211031224	
2015/06/25 15:39:25.073	0.0342577736685006	-0.391259836108665	-1.46623271301183	-2.88306211031224	
2015/06/25 15:39:25.074	0.0357002062440164	-0.387293146525997	-1.46623271301183	-2.88306211031224	
2015/06/25 15:39:25.075	0.0403881121144428	-0.383687065087207	-1.46623271301183	-2.88306211031224	
2015/06/25 15:39:25.076	0.0432729772654745	-0.377556726641265	-1.45865994199037	-3.00350523036781	
2015/06/25 15:39:25.077	0.0414699365460797	-0.369983955619807	-1.45902055013425	-3.00386583851169	
2015/06/25 15:39:25.078	0.0479608831359009	-0.375393077777991	-1.45902055013425	-3.00386583851169	
2015/06/25 15:39:25.079	0.0490427075675377	-0.369983955619807	-1.45902055013425	-3.00386583851169	
2015/06/25 15:39:25.080	0.0494033157114167	-0.369983955619807	-1.45902055013425	-3.00386583851169	
2015/06/25 15:39:25.081	0.046879058704264	-0.363493009029986	-1.45902055013425	-3.00386583851169	
2015/06/25 15:39:25.082	0.0530093971502062	-0.35519902172077	-1.45902055013425	-3.00386583851169	
2015/06/25 15:39:25.083	0.0494033157114167	-0.35519902172077	-1.46551149672407	-3.23068836101155	
2015/06/25 15:39:25.084	0.0544518297257221	-0.348347466987069	-1.45577507683934	-3.2332126180187	
2015/06/25 15:39:25.085	0.062385208891059	-0.341495912253369	-1.46190541528528	-3.22023072483906	
2015/06/25 15:39:25.086	0.0652700740420907	-0.331759492368638	-1.45289021168831	-3.03199327373424	
2015/06/25 15:39:25.088	0.0638276414665748	-0.330677667937001	-1.45974176642201	-2.99629306749023	
2015/06/25 15:39:25.089	0.0739246694951856	-0.326350370210453	-1.46406906414855	-2.90109251750618	
2015/06/25 15:39:25.090	0.070318588056396	-0.319498815476753	-1.46406906414855	-2.86178622982338	
2015/06/25 15:39:25.091	0.0663518984737275	-0.312647260743053	-1.46082359085364	-2.84700129592434	
2015/06/25 15:39:25.092	0.078251967221733	-0.314089693318569	-1.46875697001898	-2.83041332130591	
2015/06/25 15:39:25.093	0.0764489265023382	-0.305435097865474	-1.46370845600467	-2.80408892680275	
2015/06/25 15:39:25.094	0.0800550079411278	-0.30002597570729	-1.46695392929958	-2.81634960369463	
2015/06/25 15:39:25.095	0.0836610893799173	-0.296059286124621	-1.4615448071414	-2.81815264441403	
2015/06/25 15:39:25.096	0.0836610893799173	-0.287404690671526	-1.46803575373122	-2.92272900613892	
2015/06/25 15:39:25.097	0.0887096033942227	-0.284880433664374	-1.46911757816286	-2.97826266029628	
2015/06/25 15:39:25.098	0.0933975092646491	-0.278389487074552	-1.47056001073837	-3.0071113118066	
2015/06/25 15:39:25.099	0.0930369011207701	-0.276586446355158	-1.46659332115571	-3.09509969891306	
2015/06/25 15:39:25.100	0.0912338604013754	-0.271177324196973	-1.46082359085364	-3.17118801727152	
2015/06/25 15:39:25.101	0.0948399418401649	-0.265046985751031	-1.46659332115571	-3.19318511404814	
2015/06/25 15:39:25.101	0.0984460232789544	-0.261080296168363	-1.46623271301183	-3.20364275022063	
2015/06/25 15:39:25.102	0.0988066314228334	-0.262522728743878	-1.4633478478608	-3.21987011669518	
2015/06/25 15:39:25.103	0.103855145437139	-0.250262051851994	-1.46515088858019	-3.24583390305446	
2015/06/25 15:39:25.104	0.105658186156534	-0.249901443708115	-1.46190541528528	-3.21373977824924	
2015/06/25 15:39:25.105	0.109264267595323	-0.247737794844841	-1.46046298270976	-3.1784001801491	
2015/06/25 15:39:25.106	0.11034609202696	-0.241607456398899	-1.46118419899752	-3.06480861482723	
2015/06/25 15:39:25.107	0.114312781609628	-0.236919550528473	-1.46118419899752	-3.03632057146079	
2015/06/25 15:39:25.108	0.115755214185144	-0.230789212082531	-1.46659332115571	-2.97141110556258	
2015/06/25 15:39:25.109	0.11719764676066	-0.229346779507015	-1.46406906414855	-2.89279853019697	
2015/06/25 15:39:25.110	0.120443120055571	-0.219249751478404	-1.46803575373122	-2.87440751485914	
2015/06/25 15:39:25.111	0.122967377062723	-0.22069218405392	-1.46406906414855	-2.87657116372242	
2015/06/25 15:39:25.112	0.124770417782118	-0.208431507162035	-1.47777217361595	-2.85132859365089	
2015/06/25 15:39:25.113	0.125852242213755	-0.218167927046767	-1.47164183517001	-2.82824967244264	
2015/06/25 15:39:25.114	0.127294674789271	-0.213480021176341	-1.46911757816286	-2.84375582262943	
2015/06/25 15:39:25.115	0.125852242213755	-0.206628466442641	-1.46695392929958	-2.96131407753397	
2015/06/25 15:39:25.116	0.128737107364787	-0.201579952428335	-1.47560852475268	-3.03127205744649	
2015/06/25 15:39:25.117	0.130540148084181	-0.19653143841403	-1.46911757816286	-3.0345175307414	
2015/06/25 15:39:25.118	0.127294674789271	-0.195089005838514	-1.46010237456588	-3.13007868886932	
2015/06/25 15:39:25.119	0.130540148084181	-0.188598059248693	-1.46875697001898	-3.19823362806244	
2015/06/25 15:39:25.120	0.138112919105639	-0.190761708111967	-1.4701994025945	-3.22311558999009	
2015/06/25 15:39:25.121	0.138473527249518	-0.184270761522145	-1.46947818630674	-3.23681869945749	
2015/06/25 15:39:25.122	0.140997784256671	-0.178861639363961	-1.46731453744346	-3.2624218776729	
2015/06/25 15:39:25.123	0.143882649407703	-0.181746504514993	-1.46551149672407	-3.26638856725556	
2015/06/25 15:39:25.124	0.140997784256671	-0.179943463795598	-1.46695392929958	-3.27504316270866	
2015/06/25 15:39:25.125	0.140637176112792	-0.178140423076203	-1.46370845600467	-3.19967606063796	
2015/06/25 15:39:25.126	0.141719000544429	-0.17922224750784	-1.46226602342916	-3.10699976766107	
2015/06/25 15:39:25.127	0.145685690127097	-0.178501031220082	-1.46659332115571	-3.08428145459669	
2015/06/25 15:39:25.128	0.14496447383934	-0.173452517205777	-1.4615448071414	-3.01720833983521	
2015/06/25 15:39:25.129	0.14820994713425	-0.168043395047593	-1.46046298270976	-2.93066238530426	
2015/06/25 15:39:25.130	0.147849338990371	-0.163355489177166	-1.46587210486795	-2.88919244875818	
2015/06/25 15:39:25.131	0.148570555278129	-0.166600962472077	-1.46875697001898	-2.87260447413975	
2015/06/25 15:39:25.132	0.148570555278129	-0.168404003191472	-1.47236305145777	-2.84700129592434	
2015/06/25 15:39:25.133	0.145685690127097	-0.163716097321045	-1.46875697001898	-2.82861028058651	
2015/06/25 15:39:25.134	0.145325081983218	-0.170207043910866	-1.46947818630674	-2.82103750956506	
2015/06/25 15:39:25.135	0.150012987853645	-0.165158529896561	-1.47669034918432	-2.88306211031224	
2015/06/25 15:39:25.136	0.143882649407703	-0.171649476486382	-1.47813278175983	-2.9779020521524	
2015/06/25 15:39:25.137	0.144603865695461	-0.176697990500687	-1.48173886319862	-3.00314462222393	
2015/06/25 15:39:25.138	0.140637176112792	-0.17597677421293	-1.49111467493947	-3.0669722636905	
2015/06/25 15:39:25.139	0.137031094674003	-0.173091909061898	-1.48606616092517	-3.14846970420715	
2015/06/25 15:39:25.140	0.138834135393397	-0.171288868342503	-1.48859041793232	-3.19570937105529	
2015/06/25 15:39:25.141	0.133064405091334	-0.172010084630261	-1.48282068763026	-3.214460994537	
2015/06/25 15:39:25.142	0.139194743537276	-0.16876461133535	-1.4889510260762	-3.21337917010536	
2015/06/25 15:39:25.143	0.140637176112792	-0.167322178759835	-1.48498433649353	-3.23429444245034	
2015/06/25 15:39:25.143	0.138112919105639	-0.17237069277414	-1.49363893194663	-3.23970356460852	
2015/06/25 15:39:25.144	0.134867445810729	-0.187155626673177	-1.4907540667956	-3.22203376555845	
2015/06/25 15:39:25.145	0.129458323652544	-0.177419206788445	-1.49291771565887	-3.11889983640907	
2015/06/25 15:39:25.146	0.126934066645392	-0.186434410385419	-1.49183589122723	-3.04966307278431	
2015/06/25 15:39:25.147	0.122967377062723	-0.186434410385419	-1.49544197266602	-3.04894185649656	
2015/06/25 15:39:25.148	0.120082511911692	-0.192564748831361	-1.504457176263	-2.95590495537579	
2015/06/25 15:39:25.149	0.112149132746355	-0.197973870989546	-1.50337535183136	-2.84339521448555	
2015/06/25 15:39:25.151	0.113230957177992	-0.208792115305914	-1.49904805410481	-2.84339521448555	
2015/06/25 15:39:25.152	0.113230957177992	-0.215643670039614	-1.50626021698239	-2.82897088873039	
2015/06/25 15:39:25.153	0.108182443163686	-0.214922453751857	-1.5026541355436	-2.8185132525579	
2015/06/25 15:39:25.154	0.102412712861623	-0.223577049204951	-1.50481778440687	-2.83329818645694	
2015/06/25 15:39:25.155	0.0995278477105913	-0.229707387650894	-1.51960271830591	-2.9367927237502	
2015/06/25 15:39:25.156	0.094118725552407	-0.240165023823383	-1.52176636716919	-2.9916051616198	
2015/06/25 15:39:25.157	0.0843823056676752	-0.252786308859147	-1.52248758345694	-3.02550232714442	
2015/06/25 15:39:25.158	0.0771701427900961	-0.251343876283631	-1.5300603544784	-3.11168767353149	
2015/06/25 15:39:25.159	0.0771701427900961	-0.258195431017331	-1.52753609747125	-3.18380930230728	
2015/06/25 15:39:25.160	0.0717610206319118	-0.2758652300674	-1.52861792190289	-3.2058063990839	
2015/06/25 15:39:25.161	0.0652700740420907	-0.278389487074552	-1.52573305675185	-3.22203376555845	
2015/06/25 15:39:25.162	0.0638276414665748	-0.284880433664374	-1.52465123232022	-3.2213125492707	
2015/06/25 15:39:25.163	0.062385208891059	-0.289928947678679	-1.51491481243549	-3.24980059263713	
2015/06/25 15:39:25.164	0.0584185193083905	-0.298222934987895	-1.52573305675185	-3.25340667407592	
2015/06/25 15:39:25.165	0.0544518297257221	-0.311204828167537	-1.52645427303961	-3.18705477560219	
2015/06/25 15:39:25.166	0.054812437869601	-0.311565436311416	-1.52248758345694	-3.07995415687015	
2015/06/25 15:39:25.167	0.038945679538927	-0.322023072483906	-1.53150278705392	-3.05615401937413	
2015/06/25 15:39:25.168	0.0360608143878954	-0.332841316800275	-1.52753609747125	-2.98583543131774	
2015/06/25 15:39:25.169	0.0302910840858321	-0.335365573807427	-1.52825731375901	-2.89424096277248	
2015/06/25 15:39:25.170	0.0277668270786795	-0.340774695965611	-1.53438765220495	-2.84916494478762	
2015/06/25 15:39:25.171	0.0144243257551582	-0.35159294028198	-1.53114217891004	-2.81562838740687	
2015/06/25 15:39:25.172	0.0126212850357634	-0.36205057645447	-1.53150278705392	-2.83113453759367	
2015/06/25 15:39:25.173	0.0162273664745529	-0.368541523044291	-1.53042096262228	-2.78281304631389	
2015/06/25 15:39:25.174	0.0176697990500687	-0.373229428914717	-1.53222400334168	-2.77271601828528	
2015/06/25 15:39:25.175	0.0151455420429161	-0.383326456943328	-1.53078157076616	-2.83365879460082	
2015/06/25 15:39:25.176	0.0133425013235213	-0.387293146525997	-1.52393001603246	-2.92849873644098	
2015/06/25 15:39:25.177	0.00649094658982117	-0.398111390842365	-1.5300603544784	-2.95446252280027	
2015/06/25 15:39:25.178	-0.0046879058704264	-0.414699365460797	-1.53763312549986	-3.00783252809435	
2015/06/25 15:39:25.179	-0.0176697990500687	-0.421190312050618	-1.54268163951417	-3.10159064550288	
2015/06/25 15:39:25.180	-0.0180304071939477	-0.433090380798624	-1.5387149499315	-3.13440598659587	
2015/06/25 15:39:25.181	-0.0256031782154057	-0.440302543676203	-1.53943616621925	-3.14378179833672	
2015/06/25 15:39:25.182	-0.0342577736685006	-0.446432882122145	-1.53763312549986	-3.15712429966024	
2015/06/25 15:39:25.184	-0.0317335166613479	-0.450399571704813	-1.53150278705392	-3.18705477560219	
2015/06/25 15:39:25.185	-0.0382244632511691	-0.462660248596698	-1.53583008478047	-3.16758193583273	
2015/06/25 15:39:25.185	-0.0403881121144428	-0.466987546323245	-1.52933913819064	-3.06552983111499	
2015/06/25 15:39:25.186	-0.0501245319991746	-0.470593627762035	-1.53150278705392	-3.00639009551884	
2015/06/25 15:39:25.187	-0.0429123691215955	-0.474920925488582	-1.5250118404641	-2.98872029646877	
2015/06/25 15:39:25.188	-0.0432729772654745	-0.477805790639614	-1.52861792190289	-2.88991366504594	
2015/06/25 15:39:25.189	-0.0486820994236588	-0.483575520941677	-1.52104515088143	-2.83005271316203	
2015/06/25 15:39:25.190	-0.0497639238552956	-0.490066467531498	-1.52032393459367	-2.81021926524869	
2015/06/25 15:39:25.191	-0.0522881808624483	-0.495114981545804	-1.5250118404641	-2.80589196752214	
2015/06/25 15:39:25.192	-0.0591397355961484	-0.50665444214993	-1.52609366489573	-2.76910993684649	
2015/06/25 15:39:25.193	-0.0595003437400274	-0.517472686466299	-1.52429062417634	-2.76009473324951	
2015/06/25 15:39:25.194	-0.0659912903298486	-0.523242416768362	-1.53114217891004	-2.79146764176698	
2015/06/25 15:39:25.195	-0.0695973717686381	-0.525406065631636	-1.52465123232022	-2.88125906959284	
2015/06/25 15:39:25.196	-0.0825792649482804	-0.532978836653094	-1.5250118404641	-2.94220184590839	
2015/06/25 15:39:25.197	-0.0746458857829435	-0.533700052940852	-1.51311177171609	-2.96744441597991	
2015/06/25 15:39:25.198	-0.0735640613513066	-0.533339444796973	-1.51779967758652	-3.06589043925887	
2015/06/25 15:39:25.199	-0.0721216287757908	-0.527930322638789	-1.5181602857304	-3.13584841917138	
2015/06/25 15:39:25.200	-0.0750064939268224	-0.53766674252352	-1.51239055542833	-3.16109098924291	
2015/06/25 15:39:25.201	-0.0793337916533699	-0.544878905401099	-1.50553900069463	-3.17190923355928	
2015/06/25 15:39:25.202	-0.0771701427900961	-0.548845594983768	-1.51058751470894	-3.20111849321347	
2015/06/25 15:39:25.203	-0.0825792649482804	-0.552451676422557	-1.5113087309967	-3.19931545249408	
2015/06/25 15:39:25.204	-0.0778913590778541	-0.550648635703163	-1.5095056902773	-3.20328214207675	
2015/06/25 15:39:25.205	-0.0822186568044015	-0.553894108998073	-1.5113087309967	-3.15135456935818	
2015/06/25 15:39:25.206	-0.0851035219554331	-0.558942623012379	-1.50373595997524	-3.02802658415158	
2015/06/25 15:39:25.207	-0.0825792649482804	-0.560745663731773	-1.5026541355436	-3.01432347468418	
2015/06/25 15:39:25.208	-0.0883489952503437	-0.5722851243359	-1.50914508213342	-2.95662617166354	
2015/06/25 15:39:25.209	-0.0970035907034386	-0.571563908048142	-1.50481778440687	-2.86467109497441	
2015/06/25 15:39:25.210	-0.093758117408528	-0.573366948767537	-1.50698143327015	-2.81057987339257	
2015/06/25 15:39:25.211	-0.0905126441136174	-0.572645732479779	-1.50517839255075	-2.7979585883568	
2015/06/25 15:39:25.212	-0.0933975092646491	-0.578415462781842	-1.50553900069463	-2.78353426260165	
2015/06/25 15:39:25.213	-0.0847429138115542	-0.574088165055295	-1.50049048668033	-2.75396439480357	
2015/06/25 15:39:25.214	-0.0970035907034386	-0.600773167702337	-1.48462372834965	-2.76153716582503	
2015/06/25 15:39:25.233	-0.0984460232789544	-0.596806478119669	-1.48642676906905	-2.75973412510563	
2015/06/25 15:39:25.234	-0.0966429825595597	-0.598609518839064	-1.48606616092517	-2.77884635673122	
2015/06/25 15:39:25.235	-0.101691496573865	-0.59644586997579	-1.48967224236396	-2.88738940803878	
2015/06/25 15:39:25.236	-0.0966429825595597	-0.592839788537	-1.48750859350069	-2.95590495537579	
2015/06/25 15:39:25.237	-0.104215753581018	-0.593561004824758	-1.49111467493947	-2.95842921238294	
2015/06/25 15:39:25.238	-0.102412712861623	-0.593200396680879	-1.48786920164456	-3.07310260213645	
2015/06/25 15:39:25.239	-0.0966429825595597	-0.592479180393121	-1.49147528308335	-3.13873328432242	
2015/06/25 15:39:25.240	-0.0977248069911965	-0.592479180393121	-1.4889510260762	-3.16577889511334	
2015/06/25 15:39:25.241	-0.0973641988473176	-0.597527694407427	-1.48859041793232	-3.17623653128583	
2015/06/25 15:39:25.242	-0.100609672142228	-0.59644586997579	-1.4820994713425	-3.19498815476753	
2015/06/25 15:39:25.243	-0.0995278477105913	-0.592839788537	-1.48282068763026	-3.19787301991856	
2015/06/25 15:39:25.244	-0.107100618732049	-0.5996913432707	-1.48426312020577	-3.20400335836451	
2015/06/25 15:39:25.245	-0.0977248069911965	-0.595364045544153	-1.47993582247923	-3.1441424064806	
2015/06/25 15:39:25.246	-0.0991672395667123	-0.594282221112516	-1.47921460619147	-3.03379631445364	
2015/06/25 15:39:25.247	-0.101691496573865	-0.598248910695185	-1.48498433649353	-3.01288104210866	
2015/06/25 15:39:25.248	-0.0984460232789544	-0.595724653688032	-1.48065703876698	-2.96383833454112	
2015/06/25 15:39:25.249	-0.0984460232789544	-0.597527694407427	-1.48246007948638	-2.85601649952132	
2015/06/25 15:39:25.250	-0.0991672395667123	-0.5996913432707	-1.48570555278129	-2.81598899555075	
2015/06/25 15:39:25.251	-0.0955611581279228	-0.601133775846216	-1.49003285050784	-2.7979585883568	
2015/06/25 15:39:25.252	-0.0930369011207701	-0.600051951414579	-1.48282068763026	-2.76225838211279	
2015/06/25 15:39:25.253	-0.0988066314228334	-0.592479180393121	-1.48137825505474	-2.7499977052209	
2015/06/25 15:39:25.254	-0.0984460232789544	-0.590676139673727	-1.48173886319862	-2.74963709707702	
2015/06/25 15:39:25.255	-0.0998884558544703	-0.599330735126821	-1.48859041793232	-2.79579493949353	
2015/06/25 15:39:25.256	-0.0970035907034386	-0.597888302551306	-1.48967224236396	-2.91912292470013	
2015/06/25 15:39:25.257	-0.0973641988473176	-0.595724653688032	-1.48714798535681	-2.93210481787977	
2015/06/25 15:39:25.258	-0.0991672395667123	-0.59644586997579	-1.48173886319862	-2.98691725574938	
2015/06/25 15:39:25.259	-0.0973641988473176	-0.593561004824758	-1.47993582247923	-3.0756268591436	
2015/06/25 15:39:25.260	-0.0966429825595597	-0.597167086263548	-1.4820994713425	-3.12899686443768	
2015/06/25 15:39:25.261	-0.0919550766891333	-0.586709450091058	-1.48714798535681	-3.1354878110275	
2015/06/25 15:39:25.262	-0.0933975092646491	-0.587791274522695	-1.47849338990371	-3.1646970706817	
2015/06/25 15:39:25.263	-0.0926762929768912	-0.5859882338033	-1.47488730846492	-3.1784001801491	
2015/06/25 15:39:25.264	-0.0919550766891333	-0.585627625659421	-1.48065703876698	-3.14161814947345	
2015/06/25 15:39:25.266	-0.0962823744156807	-0.587070058234937	-1.47885399804759	-3.0687753044099	
2015/06/25 15:39:25.267	-0.0962823744156807	-0.587070058234937	-1.48354190391802	-3.01576590725969	
2015/06/25 15:39:25.268	-0.0966429825595597	-0.587430666378816	-1.48642676906905	-2.98799908018101	
2015/06/25 15:39:25.268	-0.0908732522574964	-0.581660936076753	-1.48967224236396	-2.90722285595213	
2015/06/25 15:39:25.269	-0.0952005499840438	-0.588151882666574	-1.48462372834965	-2.83257697016918	
2015/06/25 15:39:25.270	-0.0908732522574964	-0.591397355961484	-1.4820994713425	-2.79435250691801	
2015/06/25 15:39:25.271	-0.093758117408528	-0.592839788537	-1.4839025120619	-2.7842554788894	
2015/06/25 15:39:25.272	-0.0915944685452543	-0.586709450091058	-1.48678737721293	-2.76730689612709	
2015/06/25 15:39:25.273	-0.0959217662718018	-0.582021544220632	-1.48498433649353	-2.74963709707702	
2015/06/25 15:39:25.274	-0.0915944685452543	-0.588512490810453	-1.48426312020577	-2.77632209972407	
2015/06/25 15:39:25.275	-0.0977248069911965	-0.584185193083905	-1.48786920164456	-2.88955305690206	
2015/06/25 15:39:25.276	-0.0970035907034386	-0.587791274522695	-1.4839025120619	-2.95013522507372	
2015/06/25 15:39:25.277	-0.0883489952503437	-0.592479180393121	-1.48642676906905	-2.97573840328913	
2015/06/25 15:39:25.278	-0.0894308196819806	-0.583463976796148	-1.48101764691086	-3.0669722636905	
2015/06/25 15:39:25.279	-0.0912338604013754	-0.584545801227784	-1.48282068763026	-3.13404537845199	
2015/06/25 15:39:25.280	-0.0894308196819806	-0.570842691760384	-1.48786920164456	-3.17226984170316	
2015/06/25 15:39:25.281	-0.0901520359697385	-0.572645732479779	-1.48282068763026	-3.18236686973177	
2015/06/25 15:39:25.282	-0.0869065626748279	-0.577694246494084	-1.48426312020577	-3.19282450590426	
2015/06/25 15:39:25.283	-0.0883489952503437	-0.574088165055295	-1.48678737721293	-3.21806707597578	
2015/06/25 15:39:25.284	-0.0833004812360384	-0.573006340623658	-1.48426312020577	-3.20472457465226	
2015/06/25 15:39:25.285	-0.0930369011207701	-0.576612422062447	-1.4820994713425	-3.1560424752286	
2015/06/25 15:39:25.286	-0.0865459545309489	-0.580579111645116	-1.48534494463741	-3.06228435782008	
2015/06/25 15:39:25.287	-0.0872671708187069	-0.579497287213479	-1.4820994713425	-3.02225685384951	
2015/06/25 15:39:25.288	-0.0919550766891333	-0.576251813918568	-1.48859041793232	-2.98006570101568	
2015/06/25 15:39:25.289	-0.0912338604013754	-0.579857895357358	-1.48967224236396	-2.86935900084484	
2015/06/25 15:39:25.290	-0.0926762929768912	-0.575169989486932	-1.48462372834965	-2.82067690142118	
2015/06/25 15:39:25.291	-0.0887096033942227	-0.569760867328747	-1.48101764691086	-2.81382534668748	
2015/06/25 15:39:25.292	-0.0952005499840438	-0.581300327932874	-1.48426312020577	-2.78786156032819	
2015/06/25 15:39:25.293	-0.0926762929768912	-0.578054854637963	-1.48534494463741	-2.75396439480357	
2015/06/25 15:39:25.294	-0.0908732522574964	-0.578415462781842	-1.48426312020577	-2.76802811241485	
2015/06/25 15:39:25.295	-0.0869065626748279	-0.582021544220632	-1.48462372834965	-2.80120406165171	
2015/06/25 15:39:25.296	-0.0919550766891333	-0.576251813918568	-1.48498433649353	-2.91046832924704	
2015/06/25 15:39:25.297	-0.0901520359697385	-0.576251813918568	-1.48101764691086	-2.93535029117468	
2015/06/25 15:39:25.298	-0.0793337916533699	-0.568318434753231	-1.47596913289656	-2.98114752544731	
2015/06/25 15:39:25.299	-0.0710398043441539	-0.557139582292984	-1.47128122702613	-3.0875269278916	
2015/06/25 15:39:25.300	-0.0753671020707014	-0.563269920738926	-1.47416609217716	-3.14269997390508	
2015/06/25 15:39:25.301	-0.0778913590778541	-0.562548704451168	-1.47236305145777	-3.14738787977551	
2015/06/25 15:39:25.302	-0.070679196200275	-0.565072961458321	-1.47596913289656	-3.1560424752286	
2015/06/25 15:39:25.303	-0.0753671020707014	-0.560745663731773	-1.47921460619147	-3.1784001801491	
2015/06/25 15:39:25.304	-0.0692367636247592	-0.562548704451168	-1.47488730846492	-3.18777599188995	
2015/06/25 15:39:25.305	-0.0695973717686381	-0.561106271875652	-1.47993582247923	-3.17587592314195	
2015/06/25 15:39:25.306	-0.070679196200275	-0.558942623012379	-1.47777217361595	-3.07274199399257	
2015/06/25 15:39:25.307	-0.0724822369196698	-0.563269920738926	-1.47921460619147	-3.0002597570729	
2015/06/25 15:39:25.308	-0.070679196200275	-0.56867904289711	-1.48318129577414	-2.99016272904429	
2015/06/25 15:39:25.309	-0.0746458857829435	-0.566876002177716	-1.4820994713425	-2.90325616636946	
2015/06/25 15:39:25.310	-0.0764489265023382	-0.56182748816341	-1.4839025120619	-2.8322163620253	
2015/06/25 15:39:25.310	-0.078251967221733	-0.56867904289711	-1.48282068763026	-2.80589196752214	
2015/06/25 15:39:25.311	-0.070679196200275	-0.568318434753231	-1.48282068763026	-2.79254946619862	
2015/06/25 15:39:25.312	-0.0753671020707014	-0.565072961458321	-1.48678737721293	-2.77091297756588	
2015/06/25 15:39:25.313	-0.0724822369196698	-0.557500190436863	-1.47885399804759	-2.75757047624236	
2015/06/25 15:39:25.314	-0.0688761554808802	-0.5517304601348	-1.47993582247923	-2.78750095218431	
2015/06/25 15:39:25.315	-0.0674337229053644	-0.549566811271526	-1.48101764691086	-2.87657116372242	
2015/06/25 15:39:25.316	-0.0721216287757908	-0.553894108998073	-1.48029643062311	-2.96852624041155	
2015/06/25 15:39:25.317	-0.0724822369196698	-0.556778974149105	-1.48101764691086	-2.97357475442585	
2015/06/25 15:39:25.318	-0.0699579799125171	-0.55497593342971	-1.48498433649353	-3.08211780573342	
2015/06/25 15:39:25.319	-0.0652700740420907	-0.549566811271526	-1.48318129577414	-3.14342119019284	
2015/06/25 15:39:25.320	-0.078251967221733	-0.555336541573589	-1.48750859350069	-3.17263044984704	
2015/06/25 15:39:25.321	-0.0721216287757908	-0.553172892710315	-1.4839025120619	-3.18308808601953	
2015/06/25 15:39:25.322	-0.0645488577543327	-0.551369851990921	-1.48065703876698	-3.20616700722778	
2015/06/25 15:39:25.323	-0.0677943310492434	-0.55497593342971	-1.47596913289656	-3.22239437370233	
2015/06/25 15:39:25.324	-0.0616639926033011	-0.549206203127647	-1.48137825505474	-3.20111849321347	
2015/06/25 15:39:25.325	-0.0685155473370013	-0.555697149717468	-1.4770509573282	-3.16974558469601	
2015/06/25 15:39:25.326	-0.0724822369196698	-0.549927419415405	-1.4770509573282	-3.05867827638129	
2015/06/25 15:39:25.327	-0.0710398043441539	-0.554254717141952	-1.48065703876698	-2.97429597071361	
2015/06/25 15:39:25.329	-0.0721216287757908	-0.556057757861347	-1.47741156547207	-2.8664741356938	
2015/06/25 15:39:25.330	-0.0598609518839064	-0.556418366005226	-1.47669034918432	-2.83510122717634	
2015/06/25 15:39:25.331	-0.0699579799125171	-0.549206203127647	-1.47200244331389	-2.81454656297524	
2015/06/25 15:39:25.332	-0.0764489265023382	-0.555697149717468	-1.4752479166088	-2.79074642547922	
2015/06/25 15:39:25.333	-0.0724822369196698	-0.559303231156258	-1.47344487588941	-2.76225838211279	
2015/06/25 15:39:25.334	-0.070679196200275	-0.553894108998073	-1.47416609217716	-2.7637008146883	
2015/06/25 15:39:25.335	-0.0721216287757908	-0.551009243847042	-1.47596913289656	-2.81057987339257	
2015/06/25 15:39:25.336	-0.062385208891059	-0.557860798580742	-1.48065703876698	-2.92345022242668	
2015/06/25 15:39:25.337	-0.0688761554808802	-0.545600121688857	-1.47560852475268	-2.94977461692984	
2015/06/25 15:39:25.338	-0.0659912903298486	-0.543797080969463	-1.48065703876698	-2.98727786389325	
2015/06/25 15:39:25.339	-0.0616639926033011	-0.545960729832736	-1.47236305145777	-3.09509969891306	
2015/06/25 15:39:25.340	-0.0602215600277853	-0.549927419415405	-1.47344487588941	-3.13945450061017	
2015/06/25 15:39:25.341	-0.0613033844594222	-0.545239513544978	-1.47488730846492	-3.157845515948	
2015/06/25 15:39:25.342	-0.0616639926033011	-0.541633432106189	-1.48029643062311	-3.15748490780412	
2015/06/25 15:39:25.343	-0.0634670333226959	-0.545960729832736	-1.4820994713425	-3.19679119548693	
2015/06/25 15:39:25.344	-0.0663518984737275	-0.54812437869601	-1.48426312020577	-3.18921842446547	
2015/06/25 15:39:25.345	-0.0695973717686381	-0.543436472825584	-1.48318129577414	-3.14378179833672	
2015/06/25 15:39:25.346	-0.062745817034938	-0.542354648393947	-1.48065703876698	-3.08103598130178	
2015/06/25 15:39:25.347	-0.062745817034938	-0.545960729832736	-1.48822980978844	-3.0002597570729	
2015/06/25 15:39:25.348	-0.0613033844594222	-0.543436472825584	-1.48714798535681	-2.99304759419532	
2015/06/25 15:39:25.349	-0.0602215600277853	-0.541994040250068	-1.48173886319862	-2.90578042337661	
2015/06/25 15:39:25.350	-0.062385208891059	-0.544518297257221	-1.48173886319862	-2.85493467508968	
2015/06/25 15:39:25.351	-0.0580579111645116	-0.548845594983768	-1.48318129577414	-2.80697379195378	
2015/06/25 15:39:25.351	-0.0667125066176065	-0.545960729832736	-1.48822980978844	-2.79723737206905	
2015/06/25 15:39:25.352	-0.0641882496104538	-0.545960729832736	-1.4820994713425	-2.76694628798321	
2015/06/25 15:39:25.353	-0.0598609518839064	-0.553533500854194	-1.47957521433535	-2.75937351696176	
2015/06/25 15:39:25.354	-0.0598609518839064	-0.547763770552131	-1.48859041793232	-2.77992818116286	
2015/06/25 15:39:25.355	-0.0688761554808802	-0.546321337976615	-1.48462372834965	-2.87801359629793	
2015/06/25 15:39:25.356	-0.0649094658982117	-0.548484986839889	-1.47957521433535	-2.95085644136148	
2015/06/25 15:39:25.357	-0.0638276414665748	-0.540190999530673	-1.48570555278129	-2.98006570101568	
2015/06/25 15:39:25.358	-0.0634670333226959	-0.543797080969463	-1.49291771565887	-3.07454503471196	
2015/06/25 15:39:25.359	-0.0649094658982117	-0.542354648393947	-1.49219649937111	-3.16145159738679	
2015/06/25 15:39:25.361	-0.0652700740420907	-0.546321337976615	-1.48859041793232	-3.17984261272462	
2015/06/25 15:39:25.362	-0.0656306821859696	-0.544878905401099	-1.49327832380275	-3.21013369681045	
2015/06/25 15:39:25.363	-0.0605821681716643	-0.545600121688857	-1.49255710751499	-3.21770646783191	
2015/06/25 15:39:25.364	-0.0663518984737275	-0.545600121688857	-1.4907540667956	-3.19715180363081	
2015/06/25 15:39:25.365	-0.0580579111645116	-0.547763770552131	-1.49219649937111	-3.10519672694167	
2015/06/25 15:39:25.366	-0.0580579111645116	-0.549566811271526	-1.49003285050784	-3.04858124835268	
2015/06/25 15:39:25.367	-0.062385208891059	-0.54812437869601	-1.49111467493947	-3.032714490022	
2015/06/25 15:39:25.368	-0.0605821681716643	-0.544878905401099	-1.49255710751499	-2.97645961957689	
2015/06/25 15:39:25.369	-0.0699579799125171	-0.542715256537826	-1.49111467493947	-2.87981663701733	
2015/06/25 15:39:25.370	-0.0659912903298486	-0.543075864681705	-1.49291771565887	-2.82428298285997	
2015/06/25 15:39:25.371	-0.0602215600277853	-0.54812437869601	-1.48786920164456	-2.80156466979559	
2015/06/25 15:39:25.372	-0.0670731147614854	-0.542354648393947	-1.49255710751499	-2.78137061373837	
2015/06/25 15:39:25.373	-0.0631064251788169	-0.548845594983768	-1.48967224236396	-2.76406142283218	
2015/06/25 15:39:25.374	-0.062745817034938	-0.545960729832736	-1.48498433649353	-2.74639162378211	
2015/06/25 15:39:25.375	-0.0638276414665748	-0.547403162408252	-1.48786920164456	-2.8066131838099	
2015/06/25 15:39:25.376	-0.0659912903298486	-0.540551607674552	-1.49003285050784	-2.91551684326134	
2015/06/25 15:39:25.377	-0.0616639926033011	-0.546321337976615	-1.48931163422008	-2.93643211560632	
2015/06/25 15:39:25.378	-0.0613033844594222	-0.551009243847042	-1.48498433649353	-2.98619603946162	
2015/06/25 15:39:25.379	-0.0609427763155432	-0.539109175099036	-1.47632974104044	-3.08608449531609	
2015/06/25 15:39:25.380	-0.070679196200275	-0.544157689113342	-1.48318129577414	-3.1286362562938	
2015/06/25 15:39:25.381	-0.062385208891059	-0.542354648393947	-1.48606616092517	-3.15351821822145	
2015/06/25 15:39:25.382	-0.0569760867328747	-0.547403162408252	-1.48570555278129	-3.19102146518486	
2015/06/25 15:39:25.383	-0.0663518984737275	-0.541633432106189	-1.4889510260762	-3.18849720817771	
2015/06/25 15:39:25.384	-0.0652700740420907	-0.54812437869601	-1.48678737721293	-3.18993964075323	
2015/06/25 15:39:25.385	-0.062385208891059	-0.544157689113342	-1.49255710751499	-3.15460004265309	
2015/06/25 15:39:25.386	-0.0591397355961484	-0.545960729832736	-1.48931163422008	-3.03704178774855	
2015/06/25 15:39:25.387	-0.0656306821859696	-0.543075864681705	-1.49219649937111	-3.01324165025254	
2015/06/25 15:39:25.388	-0.0685155473370013	-0.541994040250068	-1.49183589122723	-2.99449002677083	
2015/06/25 15:39:25.389	-0.0674337229053644	-0.543075864681705	-1.49039345865172	-2.91479562697358	
2015/06/25 15:39:25.390	-0.0688761554808802	-0.540190999530673	-1.49436014823439	-2.8408709574784	
2015/06/25 15:39:25.391	-0.070318588056396	-0.545600121688857	-1.48931163422008	-2.80408892680275	
2015/06/25 15:39:25.392	-0.0620246007471801	-0.544878905401099	-1.4907540667956	-2.75793108438624	
2015/06/25 15:39:25.393	-0.0685155473370013	-0.54812437869601	-1.49147528308335	-2.76874932870261	
2015/06/25 15:39:25.394	-0.0656306821859696	-0.54812437869601	-1.49255710751499	-2.77415845086079	
2015/06/25 15:39:25.395	-0.0649094658982117	-0.544157689113342	-1.48606616092517	-2.87909542072957	
2015/06/25 15:39:25.396	-0.0638276414665748	-0.543797080969463	-1.49436014823439	-2.96167468567785	
2015/06/25 15:39:25.397	-0.0663518984737275	-0.545960729832736	-1.49472075637826	-2.98078691730343	
2015/06/25 15:39:25.398	-0.0699579799125171	-0.544157689113342	-1.49688440524154	-3.06913591255378	
2015/06/25 15:39:25.399	-0.0685155473370013	-0.535503093660247	-1.4958025808099	-3.14991213678266	
2015/06/25 15:39:25.400	-0.0584185193083905	-0.543436472825584	-1.49327832380275	-3.17767896386134	
2015/06/25 15:39:25.401	-0.0631064251788169	-0.542715256537826	-1.49219649937111	-3.19246389776038	
2015/06/25 15:39:25.402	-0.0616639926033011	-0.553894108998073	-1.49652379709766	-3.20183970950123	
2015/06/25 15:39:25.403	-0.0620246007471801	-0.544518297257221	-1.49688440524154	-3.21337917010536	
2015/06/25 15:39:25.404	-0.0605821681716643	-0.542715256537826	-1.49291771565887	-3.2007578850696	
2015/06/25 15:39:25.405	-0.0649094658982117	-0.541994040250068	-1.49039345865172	-3.10375429436616	
2015/06/25 15:39:25.406	-0.0677943310492434	-0.542715256537826	-1.49003285050784	-3.02442050271279	
2015/06/25 15:39:25.407	-0.0649094658982117	-0.540190999530673	-1.49327832380275	-3.01865077241072	
2015/06/25 15:39:25.408	-0.0641882496104538	-0.545600121688857	-1.49688440524154	-2.98114752544731	
2015/06/25 15:39:25.409	-0.0634670333226959	-0.542715256537826	-1.49652379709766	-2.87621055557854	
2015/06/25 15:39:25.410	-0.0631064251788169	-0.544157689113342	-1.49255710751499	-2.81815264441403	
2015/06/25 15:39:25.411	-0.0656306821859696	-0.541633432106189	-1.4889510260762	-2.80553135937826	
2015/06/25 15:39:25.412	-0.0721216287757908	-0.549566811271526	-1.48931163422008	-2.78677973589656	
2015/06/25 15:39:25.413	-0.0688761554808802	-0.549566811271526	-1.49472075637826	-2.7518007459403	
2015/06/25 15:39:25.414	-0.0638276414665748	-0.546321337976615	-1.48967224236396	-2.76406142283218	
2015/06/25 15:39:25.415	-0.0659912903298486	-0.544518297257221	-1.49219649937111	-2.80156466979559	
2015/06/25 15:39:25.416	-0.062385208891059	-0.544878905401099	-1.48750859350069	-2.90902589667152	
2015/06/25 15:39:25.417	-0.0638276414665748	-0.546681946120494	-1.48714798535681	-2.95121704950536	
2015/06/25 15:39:25.418	-0.0670731147614854	-0.54812437869601	-1.48606616092517	-2.97934448472792	
2015/06/25 15:39:25.419	-0.0656306821859696	-0.545600121688857	-1.48678737721293	-3.08392084645281	
2015/06/25 15:39:25.420	-0.062385208891059	-0.549927419415405	-1.49183589122723	-3.13404537845199	
2015/06/25 15:39:25.421	-0.0595003437400274	-0.543797080969463	-1.48714798535681	-3.15568186708473	
2015/06/25 15:39:25.422	-0.0587791274522695	-0.543075864681705	-1.48498433649353	-3.17695774757358	
2015/06/25 15:39:25.423	-0.0631064251788169	-0.544878905401099	-1.48606616092517	-3.19426693847977	
2015/06/25 15:39:25.424	-0.0620246007471801	-0.542715256537826	-1.48426312020577	-3.13837267617854	
2015/06/25 15:39:25.426	-0.0667125066176065	-0.544157689113342	-1.48426312020577	-3.03487813888528	
2015/06/25 15:39:25.427	-0.0634670333226959	-0.547042554264373	-1.48137825505474	-3.01143860953314	
2015/06/25 15:39:25.428	-0.0677943310492434	-0.545239513544978	-1.47885399804759	-3.00783252809435	
2015/06/25 15:39:25.429	-0.0631064251788169	-0.54127282396231	-1.48173886319862	-2.92164718170728	
2015/06/25 15:39:25.430	-0.0605821681716643	-0.541633432106189	-1.48606616092517	-2.839067916759	
2015/06/25 15:39:25.431	-0.0652700740420907	-0.547403162408252	-1.48137825505474	-2.82392237471609	
2015/06/25 15:39:25.432	-0.0649094658982117	-0.54127282396231	-1.47632974104044	-2.79940102093232	
2015/06/25 15:39:25.433	-0.0641882496104538	-0.542715256537826	-1.47596913289656	-2.79038581733535	
2015/06/25 15:39:25.434	-0.0677943310492434	-0.541633432106189	-1.47669034918432	-2.77379784271691	
2015/06/25 15:39:25.435	-0.0652700740420907	-0.541994040250068	-1.47993582247923	-2.78317365445777	
2015/06/25 15:39:25.435	-0.0714004124880329	-0.544518297257221	-1.47272365960165	-2.87548933929078	
2015/06/25 15:39:25.436	-0.0681549391931223	-0.538387958811278	-1.47669034918432	-2.96383833454112	
2015/06/25 15:39:25.437	-0.0695973717686381	-0.544518297257221	-1.47632974104044	-2.98691725574938	
2015/06/25 15:39:25.438	-0.0595003437400274	-0.545239513544978	-1.48282068763026	-3.07238138584869	
2015/06/25 15:39:25.439	-0.0638276414665748	-0.544878905401099	-1.47921460619147	-3.15748490780412	
2015/06/25 15:39:25.440	-0.0685155473370013	-0.541633432106189	-1.48498433649353	-3.1921032896165	
2015/06/25 15:39:25.441	-0.0649094658982117	-0.539469783242915	-1.47849338990371	-3.18921842446547	
2015/06/25 15:39:25.442	-0.0620246007471801	-0.54127282396231	-1.47849338990371	-3.214460994537	
2015/06/25 15:39:25.443	-0.0638276414665748	-0.543797080969463	-1.48101764691086	-3.22347619813397	
2015/06/25 15:39:25.444	-0.0667125066176065	-0.540551607674552	-1.48246007948638	-3.20147910135735	
2015/06/25 15:39:25.445	-0.0634670333226959	-0.539109175099036	-1.48318129577414	-3.11889983640907	
2015/06/25 15:39:25.446	-0.0641882496104538	-0.539830391386794	-1.48101764691086	-3.04786003206492	
2015/06/25 15:39:25.447	-0.0656306821859696	-0.548484986839889	-1.49111467493947	-3.00891435252599	
2015/06/25 15:39:25.448	-0.0652700740420907	-0.540912215818431	-1.48822980978844	-2.98691725574938	
2015/06/25 15:39:25.449	-0.0616639926033011	-0.548484986839889	-1.49363893194663	-2.86935900084484	
2015/06/25 15:39:25.450	-0.0609427763155432	-0.546681946120494	-1.49616318895378	-2.82211933399669	
2015/06/25 15:39:25.451	-0.0638276414665748	-0.544518297257221	-1.49363893194663	-2.79471311506189	
2015/06/25 15:39:25.452	-0.0616639926033011	-0.543797080969463	-1.49652379709766	-2.7774039241557	
2015/06/25 15:39:25.453	-0.0634670333226959	-0.539109175099036	-1.49327832380275	-2.7637008146883	
2015/06/25 15:39:25.454	-0.0670731147614854	-0.539109175099036	-1.49472075637826	-2.76694628798321	
2015/06/25 15:39:25.455	-0.0605821681716643	-0.550648635703163	-1.50157231111196	-2.78750095218431	
2015/06/25 15:39:25.456	-0.0674337229053644	-0.548845594983768	-1.5026541355436	-2.91912292470013	
2015/06/25 15:39:25.458	-0.0634670333226959	-0.540912215818431	-1.5026541355436	-2.96888684855543	
2015/06/25 15:39:25.459	-0.0663518984737275	-0.541633432106189	-1.49652379709766	-3.08500267088445	
2015/06/25 15:39:25.460	-0.0674337229053644	-0.546681946120494	-1.50193291925584	-3.1354878110275	
2015/06/25 15:39:25.461	-0.0688761554808802	-0.538748566955157	-1.49796622967317	-3.15460004265309	
2015/06/25 15:39:25.462	-0.0674337229053644	-0.544878905401099	-1.49652379709766	-3.17263044984704	
2015/06/25 15:39:25.463	-0.0652700740420907	-0.539109175099036	-1.4907540667956	-3.20003666878184	
2015/06/25 15:39:25.464	-0.0620246007471801	-0.539469783242915	-1.4907540667956	-3.20688822351554	
2015/06/25 15:39:25.465	-0.0652700740420907	-0.544878905401099	-1.49003285050784	-3.15351821822145	
2015/06/25 15:39:25.466	-0.0649094658982117	-0.550288027559284	-1.48642676906905	-3.03884482846794	
2015/06/25 15:39:25.467	-0.0634670333226959	-0.544157689113342	-1.48498433649353	-3.01360225839642	
2015/06/25 15:39:25.468	-0.0576973030206326	-0.541633432106189	-1.48354190391802	-3.00783252809435	
2015/06/25 15:39:25.469	-0.0634670333226959	-0.544157689113342	-1.48714798535681	-2.92705630386547	
2015/06/25 15:39:25.470	-0.0656306821859696	-0.543797080969463	-1.48462372834965	-2.84628007963658	
2015/06/25 15:39:25.471	-0.0692367636247592	-0.546321337976615	-1.48859041793232	-2.8134647385436	
2015/06/25 15:39:25.472	-0.062745817034938	-0.541994040250068	-1.48534494463741	-2.81490717111911	
2015/06/25 15:39:25.473	-0.0645488577543327	-0.548484986839889	-1.48606616092517	-2.78822216847207	
2015/06/25 15:39:25.474	-0.0631064251788169	-0.542715256537826	-1.48534494463741	-2.77199480199752	
2015/06/25 15:39:25.475	-0.0659912903298486	-0.541994040250068	-1.48246007948638	-2.77668270786795	
2015/06/25 15:39:25.476	-0.0609427763155432	-0.550648635703163	-1.48101764691086	-2.87837420444181	
2015/06/25 15:39:25.476	-0.0652700740420907	-0.545960729832736	-1.48173886319862	-2.95554434723191	
2015/06/25 15:39:25.477	-0.0659912903298486	-0.543797080969463	-1.47921460619147	-2.98619603946162	
2015/06/25 15:39:25.478	-0.0638276414665748	-0.549206203127647	-1.48246007948638	-3.07526625099972	
2015/06/25 15:39:25.479	-0.0620246007471801	-0.545600121688857	-1.48498433649353	-3.1509939612143	
2015/06/25 15:39:25.480	-0.0641882496104538	-0.540190999530673	-1.48426312020577	-3.18128504530013	
2015/06/25 15:39:25.481	-0.0695973717686381	-0.542715256537826	-1.48354190391802	-3.19534876291141	
2015/06/25 15:39:25.482	-0.0620246007471801	-0.540190999530673	-1.48246007948638	-3.20797004794717	
2015/06/25 15:39:25.483	-0.0659912903298486	-0.540190999530673	-1.48570555278129	-3.22275498184621	
2015/06/25 15:39:25.484	-0.0634670333226959	-0.539830391386794	-1.48786920164456	-3.214460994537	
2015/06/25 15:39:25.485	-0.0591397355961484	-0.544518297257221	-1.48065703876698	-3.11709679568968	
2015/06/25 15:39:25.486	-0.0620246007471801	-0.534781877372489	-1.48678737721293	-3.03415692259752	
2015/06/25 15:39:25.487	-0.0652700740420907	-0.54127282396231	-1.48101764691086	-3.00855374438211	
2015/06/25 15:39:25.488	-0.0631064251788169	-0.535503093660247	-1.48786920164456	-2.85818014838459	
2015/06/25 15:39:25.490	-0.0631064251788169	-0.545600121688857	-1.48426312020577	-2.81274352225584	
2015/06/25 15:39:25.491	-0.0685155473370013	-0.541633432106189	-1.4839025120619	-2.80444953494662	
2015/06/25 15:39:25.492	-0.0724822369196698	-0.540912215818431	-1.48246007948638	-2.78714034404044	
2015/06/25 15:39:25.493	-0.0595003437400274	-0.543797080969463	-1.4770509573282	-2.75360378665969	
2015/06/25 15:39:25.494	-0.0638276414665748	-0.544157689113342	-1.48534494463741	-2.74963709707702	
2015/06/25 15:39:25.495	-0.0609427763155432	-0.545600121688857	-1.4839025120619	-2.79182824991086	
2015/06/25 15:39:25.496	-0.0638276414665748	-0.542354648393947	-1.48822980978844	-2.90433799080109	
2015/06/25 15:39:25.497	-0.0613033844594222	-0.542354648393947	-1.4907540667956	-2.95302009022475	
2015/06/25 15:39:25.498	-0.0670731147614854	-0.545239513544978	-1.48570555278129	-2.98042630915955	
2015/06/25 15:39:25.499	-0.0620246007471801	-0.546681946120494	-1.48678737721293	-3.07995415687015	
2015/06/25 15:39:25.500	-0.0613033844594222	-0.543075864681705	-1.48642676906905	-3.14053632504181	
2015/06/25 15:39:25.501	-0.0645488577543327	-0.542715256537826	-1.4839025120619	-3.15171517750206	
2015/06/25 15:39:25.502	-0.062385208891059	-0.544157689113342	-1.48173886319862	-3.18777599188995	
2015/06/25 15:39:25.503	-0.0670731147614854	-0.540551607674552	-1.48534494463741	-3.19534876291141	
2015/06/25 15:39:25.504	-0.0641882496104538	-0.533700052940852	-1.49183589122723	-3.20616700722778	
2015/06/25 15:39:25.505	-0.062385208891059	-0.552451676422557	-1.49183589122723	-3.16541828696946	
2015/06/25 15:39:25.506	-0.0685155473370013	-0.547763770552131	-1.4907540667956	-3.0464175994894	
2015/06/25 15:39:25.507	-0.0670731147614854	-0.550288027559284	-1.49327832380275	-3.01576590725969	
2015/06/25 15:39:25.508	-0.0695973717686381	-0.56182748816341	-1.48931163422008	-2.97898387658404	
2015/06/25 15:39:25.509	-0.0732034532074277	-0.561106271875652	-1.49724501338542	-2.92777752015323	
2015/06/25 15:39:25.510	-0.078612575365612	-0.555697149717468	-1.49976927039257	-2.85781954024071	
2015/06/25 15:39:25.511	-0.0804156160850067	-0.563269920738926	-1.49940866224869	-2.83942852490288	
2015/06/25 15:39:25.512	-0.0807762242288857	-0.563991137026684	-1.49724501338542	-2.81238291411196	
2015/06/25 15:39:25.513	-0.0840216975237963	-0.567597218465474	-1.50121170296809	-2.79182824991086	
2015/06/25 15:39:25.514	-0.0760883183584593	-0.554254717141952	-1.49436014823439	-2.77776453229958	
2015/06/25 15:39:25.515	-0.0796943997972488	-0.558221406724621	-1.49111467493947	-2.79074642547922	
2015/06/25 15:39:25.516	-0.0804156160850067	-0.556418366005226	-1.49147528308335	-2.87621055557854	
2015/06/25 15:39:25.517	-0.0796943997972488	-0.554254717141952	-1.48931163422008	-2.95951103681457	
2015/06/25 15:39:25.518	-0.078612575365612	-0.566515394033837	-1.4907540667956	-2.98222934987895	
2015/06/25 15:39:25.518	-0.0778913590778541	-0.563630528882805	-1.48750859350069	-3.05939949266904	
2015/06/25 15:39:25.519	-0.0807762242288857	-0.556057757861347	-1.48246007948638	-3.14558483905612	
2015/06/25 15:39:25.520	-0.0771701427900961	-0.556418366005226	-1.48282068763026	-3.17371227427867	
2015/06/25 15:39:25.522	-0.0883489952503437	-0.565072961458321	-1.48173886319862	-3.19931545249408	
2015/06/25 15:39:25.523	-0.0800550079411278	-0.5585820148685	-1.4770509573282	-3.23285200987482	
2015/06/25 15:39:25.524	-0.0721216287757908	-0.560024447444016	-1.47236305145777	-3.2007578850696	
2015/06/25 15:39:25.525	-0.0677943310492434	-0.551009243847042	-1.46911757816286	-3.12466956671114	
2015/06/25 15:39:25.526	-0.0688761554808802	-0.555697149717468	-1.46731453744346	-3.04100847733122	
2015/06/25 15:39:25.527	-0.0641882496104538	-0.5585820148685	-1.46587210486795	-3.01792955612297	
2015/06/25 15:39:25.528	-0.0735640613513066	-0.554615325285831	-1.46587210486795	-2.92921995272874	
2015/06/25 15:39:25.529	-0.0692367636247592	-0.551009243847042	-1.4633478478608	-2.84916494478762	
2015/06/25 15:39:25.530	-0.0699579799125171	-0.556418366005226	-1.46983879445062	-2.83293757831306	
2015/06/25 15:39:25.531	-0.0685155473370013	-0.5585820148685	-1.46551149672407	-2.82247994214057	
2015/06/25 15:39:25.532	-0.070318588056396	-0.557139582292984	-1.46226602342916	-2.80517075123438	
2015/06/25 15:39:25.533	-0.0645488577543327	-0.553172892710315	-1.47056001073837	-2.77415845086079	
2015/06/25 15:39:25.534	-0.0677943310492434	-0.552091068278679	-1.47921460619147	-2.77091297756588	
2015/06/25 15:39:25.535	-0.0649094658982117	-0.550288027559284	-1.47344487588941	-2.81310413039972	
2015/06/25 15:39:25.536	-0.0695973717686381	-0.555697149717468	-1.47632974104044	-2.93102299344814	
2015/06/25 15:39:25.537	-0.0663518984737275	-0.552812284566436	-1.48282068763026	-2.96852624041155	
2015/06/25 15:39:25.538	-0.0685155473370013	-0.552091068278679	-1.47849338990371	-2.99557185120247	
2015/06/25 15:39:25.539	-0.0674337229053644	-0.555697149717468	-1.47849338990371	-3.11565436311416	
2015/06/25 15:39:25.540	-0.0649094658982117	-0.5585820148685	-1.48101764691086	-3.16866376026437	
2015/06/25 15:39:25.541	-0.0652700740420907	-0.556057757861347	-1.47380548403328	-3.19246389776038	
2015/06/25 15:39:25.542	-0.0677943310492434	-0.553533500854194	-1.48029643062311	-3.20688822351554	
2015/06/25 15:39:25.543	-0.0649094658982117	-0.559303231156258	-1.48282068763026	-3.25160363335653	
2015/06/25 15:39:25.544	-0.0688761554808802	-0.559303231156258	-1.48137825505474	-3.24367025419119	
2015/06/25 15:39:25.545	-0.0677943310492434	-0.560385055587894	-1.48642676906905	-3.20256092578899	
2015/06/25 15:39:25.546	-0.0825792649482804	-0.561466880019531	-1.48426312020577	-3.08896936046712	
2015/06/25 15:39:25.547	-0.078612575365612	-0.557139582292984	-1.48426312020577	-3.05723584380577	
2015/06/25 15:39:25.548	-0.0851035219554331	-0.556778974149105	-1.48173886319862	-3.03127205744649	
2015/06/25 15:39:25.549	-0.0775307509339751	-0.561106271875652	-1.47849338990371	-2.93138360159202	
2015/06/25 15:39:25.550	-0.0771701427900961	-0.556418366005226	-1.48282068763026	-2.88125906959284	
2015/06/25 15:39:25.551	-0.0750064939268224	-0.552091068278679	-1.47813278175983	-2.88522575917551	
2015/06/25 15:39:25.552	-0.0735640613513066	-0.551369851990921	-1.47885399804759	-2.86863778455708	
2015/06/25 15:39:25.553	-0.0771701427900961	-0.552451676422557	-1.47993582247923	-2.81310413039972	
2015/06/25 15:39:25.555	-0.0688761554808802	-0.552451676422557	-1.48137825505474	-2.827167848011	
2015/06/25 15:39:25.556	-0.078251967221733	-0.550648635703163	-1.48137825505474	-2.91840170841237	
2015/06/25 15:39:25.557	-0.0735640613513066	-0.536945526235762	-1.47741156547207	-2.98799908018101	
2015/06/25 15:39:25.558	-0.0645488577543327	-0.532618228509215	-1.47236305145777	-3.00675070366272	
2015/06/25 15:39:25.559	-0.0677943310492434	-0.531536404077578	-1.47272365960165	-3.08716631974772	
2015/06/25 15:39:25.560	-0.0670731147614854	-0.528651538926547	-1.46875697001898	-3.1715486254154	
2015/06/25 15:39:25.560	-0.0656306821859696	-0.526127281919394	-1.47200244331389	-3.20905187237881	
2015/06/25 15:39:25.561	-0.0598609518839064	-0.531897012221457	-1.47272365960165	-3.20003666878184	
2015/06/25 15:39:25.562	-0.0573366948767537	-0.516030253890783	-1.47092061888225	-3.22347619813397	
2015/06/25 15:39:25.563	-0.0515669645746904	-0.518915119041815	-1.46695392929958	-3.23934295646464	
2015/06/25 15:39:25.564	-0.0656306821859696	-0.508096874725446	-1.47164183517001	-3.2350156587381	
2015/06/25 15:39:25.565	-0.0656306821859696	-0.509899915444841	-1.47416609217716	-3.14738787977551	
2015/06/25 15:39:25.566	-0.0641882496104538	-0.507015050293809	-1.47128122702613	-3.05435097865474	
2015/06/25 15:39:25.567	-0.0584185193083905	-0.507015050293809	-1.47488730846492	-3.0345175307414	
2015/06/25 15:39:25.568	-0.054812437869601	-0.497278630409078	-1.46695392929958	-2.94580792734717	
2015/06/25 15:39:25.569	-0.054812437869601	-0.491148291963135	-1.46442967229243	-2.86034379724786	
2015/06/25 15:39:25.570	-0.0562548704451168	-0.495836197833562	-1.4752479166088	-2.82175872585281	
2015/06/25 15:39:25.571	-0.0465184505603851	-0.494393765258046	-1.47488730846492	-2.81743142812627	
2015/06/25 15:39:25.572	-0.0555336541573589	-0.496196805977441	-1.4633478478608	-2.8066131838099	
2015/06/25 15:39:25.573	-0.0526487890063273	-0.48609977794883	-1.46587210486795	-2.77019176127812	
2015/06/25 15:39:25.574	-0.0540912215818431	-0.485378561661072	-1.47308426774553	-2.78497669517716	
2015/06/25 15:39:25.575	-0.0544518297257221	-0.485017953517193	-1.47128122702613	-2.83005271316203	
2015/06/25 15:39:25.576	-0.0512063564308115	-0.476363358064098	-1.46551149672407	-2.93426846674305	
2015/06/25 15:39:25.577	-0.0490427075675377	-0.476363358064098	-1.46623271301183	-2.96816563226767	
2015/06/25 15:39:25.578	-0.046879058704264	-0.464102681172214	-1.47272365960165	-3.00566887923108	
2015/06/25 15:39:25.579	-0.0479608831359009	-0.460135991589545	-1.45974176642201	-3.09942699663961	
2015/06/25 15:39:25.580	-0.0457972342726272	-0.463020856740577	-1.46262663157304	-3.16613950325722	
2015/06/25 15:39:25.581	-0.0457972342726272	-0.464463289316093	-1.46262663157304	-3.17551531499807	
2015/06/25 15:39:25.582	-0.038945679538927	-0.45148139613645	-1.45902055013425	-3.19246389776038	
2015/06/25 15:39:25.583	-0.0360608143878954	-0.450399571704813	-1.46298723971692	-3.21590342711251	
2015/06/25 15:39:25.584	-0.0436335854093534	-0.457972342726272	-1.45757811755873	-3.22491863070949	
2015/06/25 15:39:25.585	-0.0367820306756533	-0.443187408827234	-1.45433264426382	-3.08356023830893	
2015/06/25 15:39:25.587	-0.0342577736685006	-0.443187408827234	-1.45613568498322	-3.032714490022	
2015/06/25 15:39:25.588	-0.0320941248052269	-0.444990449546629	-1.46226602342916	-3.03307509816588	
2015/06/25 15:39:25.589	-0.0335365573807427	-0.437057070381292	-1.46298723971692	-2.92741691200935	
2015/06/25 15:39:25.590	-0.0364214225317744	-0.447514706553782	-1.4615448071414	-2.87044082527647	
2015/06/25 15:39:25.591	-0.039306287682806	-0.443548016971113	-1.46190541528528	-2.85024676921925	
2015/06/25 15:39:25.592	-0.0295698677980742	-0.434893421518018	-1.46010237456588	-2.84014974119064	
2015/06/25 15:39:25.593	-0.0302910840858321	-0.430566123791471	-1.45613568498322	-2.81671021183851	
2015/06/25 15:39:25.594	-0.0295698677980742	-0.428402474928197	-1.45865994199037	-2.8066131838099	
2015/06/25 15:39:25.595	-0.0259637863592847	-0.433450988942503	-1.46046298270976	-2.81454656297524	
2015/06/25 15:39:25.596	-0.0324547329491059	-0.434893421518018	-1.46947818630674	-2.89171670576533	
2015/06/25 15:39:25.597	-0.0382244632511691	-0.433450988942503	-1.47164183517001	-2.98439299874222	
2015/06/25 15:39:25.598	-0.0245213537837689	-0.43092673193535	-1.46731453744346	-3.00278401408005	
2015/06/25 15:39:25.599	-0.0219970967766162	-0.419747879475102	-1.46262663157304	-3.07274199399257	
2015/06/25 15:39:25.600	-0.0173091909061898	-0.428763083072076	-1.4615448071414	-3.15928794852352	
2015/06/25 15:39:25.601	-0.0183910153378267	-0.425517609777166	-1.46262663157304	-3.18597295117056	
2015/06/25 15:39:25.601	-0.0270456107909215	-0.425878217921045	-1.46370845600467	-3.19967606063796	
2015/06/25 15:39:25.602	-0.0230789212082531	-0.429123691215955	-1.47416609217716	-3.22239437370233	
2015/06/25 15:39:25.603	-0.0201940560572214	-0.429123691215955	-1.47128122702613	-3.2350156587381	
2015/06/25 15:39:25.604	-0.0216364886327372	-0.429484299359834	-1.47272365960165	-3.21914890040742	
2015/06/25 15:39:25.605	-0.0187516234817056	-0.425157001633287	-1.47308426774553	-3.14486362276836	
2015/06/25 15:39:25.606	-0.0126212850357634	-0.418666055043466	-1.47092061888225	-3.04281151805061	
2015/06/25 15:39:25.607	-0.0119000687480055	-0.421550920194497	-1.47308426774553	-3.05002368092819	
2015/06/25 15:39:25.608	-0.0122606768918844	-0.426960042352682	-1.47669034918432	-2.95842921238294	
2015/06/25 15:39:25.609	-0.0144243257551582	-0.434893421518018	-1.48029643062311	-2.86467109497441	
2015/06/25 15:39:25.610	-0.0187516234817056	-0.438499502956808	-1.48462372834965	-2.82500419914773	
2015/06/25 15:39:25.611	-0.0209152723449793	-0.444990449546629	-1.48534494463741	-2.81815264441403	
2015/06/25 15:39:25.612	-0.015866758330674	-0.441744976251719	-1.48354190391802	-2.80841622452929	
2015/06/25 15:39:25.613	-0.0173091909061898	-0.444990449546629	-1.47993582247923	-2.78714034404044	
2015/06/25 15:39:25.614	-0.0165879746184319	-0.451120787992571	-1.48606616092517	-2.7842554788894	
2015/06/25 15:39:25.615	-0.0263243945031636	-0.451842004280329	-1.48786920164456	-2.81490717111911	
2015/06/25 15:39:25.616	-0.023800137496011	-0.46193903230894	-1.4907540667956	-2.9248926550022	
2015/06/25 15:39:25.617	-0.0252425700715268	-0.471314844049793	-1.4889510260762	-2.9797050928718	
2015/06/25 15:39:25.619	-0.0299304759419532	-0.474199709200824	-1.49291771565887	-3.09690273963246	
2015/06/25 15:39:25.620	-0.0306516922297111	-0.475281533632461	-1.49183589122723	-3.16686071954497	
2015/06/25 15:39:25.621	-0.0256031782154057	-0.48609977794883	-1.49399954009051	-3.18200626158789	
2015/06/25 15:39:25.622	-0.0183910153378267	-0.485017953517193	-1.49652379709766	-3.19570937105529	
2015/06/25 15:39:25.623	-0.0284880433664374	-0.481051263934525	-1.48750859350069	-3.21085491309821	
2015/06/25 15:39:25.624	-0.0263243945031636	-0.476363358064098	-1.4958025808099	-3.21987011669518	
2015/06/25 15:39:25.625	-0.0270456107909215	-0.487902818668225	-1.49327832380275	-3.19606997919917	
2015/06/25 15:39:25.626	-0.0288486515103163	-0.494033157114167	-1.50193291925584	-3.07851172429463	
2015/06/25 15:39:25.627	-0.0346183818123796	-0.497278630409078	-1.49976927039257	-3.03523874702916	
2015/06/25 15:39:25.628	-0.0385850713950481	-0.508457482869325	-1.50193291925584	-3.00278401408005	
2015/06/25 15:39:25.629	-0.0371426388195323	-0.510621131732599	-1.50626021698239	-2.90181373379394	
2015/06/25 15:39:25.630	-0.0382244632511691	-0.51026052358872	-1.49724501338542	-2.84123156562228	
2015/06/25 15:39:25.631	-0.0385850713950481	-0.514227213171388	-1.49652379709766	-2.81130108968032	
2015/06/25 15:39:25.632	-0.0432729772654745	-0.519275727185694	-1.49508136452214	-2.81562838740687	
2015/06/25 15:39:25.633	-0.0515669645746904	-0.515309037603025	-1.50337535183136	-2.80084345350784	
2015/06/25 15:39:25.634	-0.0396668958266849	-0.521799984192846	-1.50409656811912	-2.7774039241557	
2015/06/25 15:39:25.635	-0.0439941935532324	-0.522521200480604	-1.49976927039257	-2.7929100743425	
2015/06/25 15:39:25.636	-0.0425517609777166	-0.515309037603025	-1.4976056215293	-2.86611352754993	
2015/06/25 15:39:25.637	-0.0519275727185694	-0.52756971449491	-1.50409656811912	-2.96203529382173	
2015/06/25 15:39:25.638	-0.0558942623012379	-0.538387958811278	-1.50301474368748	-2.98367178245446	
2015/06/25 15:39:25.639	-0.0645488577543327	-0.543075864681705	-1.50481778440687	-3.0464175994894	
2015/06/25 15:39:25.640	-0.0616639926033011	-0.54812437869601	-1.51599663686712	-3.15135456935818	
2015/06/25 15:39:25.641	-0.0613033844594222	-0.542715256537826	-1.50409656811912	-3.16613950325722	
2015/06/25 15:39:25.642	-0.0670731147614854	-0.543797080969463	-1.50770264955791	-3.17515470685419	
2015/06/25 15:39:25.643	-0.0652700740420907	-0.5517304601348	-1.51022690656506	-3.18272747787565	
2015/06/25 15:39:25.643	-0.0750064939268224	-0.554615325285831	-1.51058751470894	-3.19859423620632	
2015/06/25 15:39:25.644	-0.0699579799125171	-0.559303231156258	-1.50337535183136	-3.1939063303359	
2015/06/25 15:39:25.645	-0.0732034532074277	-0.558221406724621	-1.50553900069463	-3.10736037580495	
2015/06/25 15:39:25.646	-0.0760883183584593	-0.564712353314442	-1.49832683781705	-3.01612651540357	
2015/06/25 15:39:25.647	-0.0714004124880329	-0.557500190436863	-1.50121170296809	-2.9916051616198	
2015/06/25 15:39:25.648	-0.0789731835094909	-0.5654335696022	-1.50626021698239	-2.91731988398074	
2015/06/25 15:39:25.649	-0.0851035219554331	-0.572645732479779	-1.50589960883851	-2.78101000559449	
2015/06/25 15:39:25.651	-0.078251967221733	-0.574809381343053	-1.50121170296809	-2.77199480199752	
2015/06/25 15:39:25.652	-0.0807762242288857	-0.575169989486932	-1.50012987853645	-2.77379784271691	
2015/06/25 15:39:25.653	-0.0843823056676752	-0.577694246494084	-1.50085109482421	-2.7499977052209	
2015/06/25 15:39:25.654	-0.0901520359697385	-0.581300327932874	-1.50589960883851	-2.7380976364729	
2015/06/25 15:39:25.655	-0.0952005499840438	-0.584906409371663	-1.50662082512627	-2.77199480199752	
2015/06/25 15:39:25.656	-0.0962823744156807	-0.589233707098211	-1.50301474368748	-2.88955305690206	
2015/06/25 15:39:25.657	-0.0901520359697385	-0.588873098954332	-1.50734204141403	-2.93462907488693	
2015/06/25 15:39:25.658	-0.0948399418401649	-0.595003437400274	-1.50734204141403	-2.96816563226767	
2015/06/25 15:39:25.659	-0.0948399418401649	-0.593921612968637	-1.504457176263	-3.06805408812214	
2015/06/25 15:39:25.660	-0.0952005499840438	-0.597527694407427	-1.50878447398954	-3.12106348527235	
2015/06/25 15:39:25.661	-0.102052104717744	-0.593921612968637	-1.50012987853645	-3.15243639378982	
2015/06/25 15:39:25.662	-0.0973641988473176	-0.593921612968637	-1.50373595997524	-3.16325463810618	
2015/06/25 15:39:25.663	-0.0984460232789544	-0.593921612968637	-1.50157231111196	-3.1852517348828	
2015/06/25 15:39:25.664	-0.0970035907034386	-0.595364045544153	-1.50085109482421	-3.19823362806244	
2015/06/25 15:39:25.665	-0.100609672142228	-0.594642829256395	-1.49868744596093	-3.16325463810618	
2015/06/25 15:39:25.666	-0.0995278477105913	-0.598609518839064	-1.49688440524154	-3.06120253338844	
2015/06/25 15:39:25.667	-0.0998884558544703	-0.601494383990095	-1.49436014823439	-3.01432347468418	
2015/06/25 15:39:25.668	-0.0991672395667123	-0.599330735126821	-1.49796622967317	-2.98547482317386	
2015/06/25 15:39:25.669	-0.0908732522574964	-0.598609518839064	-1.49616318895378	-2.87981663701733	
2015/06/25 15:39:25.670	-0.103133929149381	-0.598970126982943	-1.49652379709766	-2.81923446884566	
2015/06/25 15:39:25.671	-0.100249063998349	-0.598609518839064	-1.4976056215293	-2.79615554763741	
2015/06/25 15:39:25.672	-0.0919550766891333	-0.602576208421732	-1.49544197266602	-2.79182824991086	
2015/06/25 15:39:25.673	-0.0966429825595597	-0.605461073572764	-1.49544197266602	-2.77776453229958	
2015/06/25 15:39:25.674	-0.0980854151350755	-0.603658032853369	-1.49363893194663	-2.75757047624236	
2015/06/25 15:39:25.675	-0.102052104717744	-0.606182289860522	-1.49796622967317	-2.76406142283218	
2015/06/25 15:39:25.676	-0.107821835019807	-0.607624722436037	-1.49796622967317	-2.82644663172324	
2015/06/25 15:39:25.677	-0.104576361724897	-0.606182289860522	-1.49688440524154	-2.92777752015323	
2015/06/25 15:39:25.678	-0.105658186156534	-0.605100465428885	-1.50049048668033	-2.95338069836863	
2015/06/25 15:39:25.679	-0.101691496573865	-0.604018640997248	-1.49652379709766	-3.01107800138927	
2015/06/25 15:39:25.680	-0.103855145437139	-0.605100465428885	-1.49508136452214	-3.10447551065391	
2015/06/25 15:39:25.681	-0.100609672142228	-0.608706546867674	-1.49003285050784	-3.14089693318569	
2015/06/25 15:39:25.682	-0.100249063998349	-0.603658032853369	-1.4958025808099	-3.1491909204949	
2015/06/25 15:39:25.684	-0.10674001058817	-0.605461073572764	-1.4907540667956	-3.16036977295515	
2015/06/25 15:39:25.685	-0.0984460232789544	-0.607985330579916	-1.49111467493947	-3.1646970706817	
2015/06/25 15:39:25.685	-0.105297578012655	-0.609067155011553	-1.48534494463741	-3.089329968611	
2015/06/25 15:39:25.686	-0.105297578012655	-0.607264114292159	-1.48498433649353	-2.97754144400852	
2015/06/25 15:39:25.687	-0.104215753581018	-0.610870195730948	-1.48859041793232	-2.97357475442585	
2015/06/25 15:39:25.688	-0.100249063998349	-0.607985330579916	-1.48137825505474	-2.89712582792352	
2015/06/25 15:39:25.689	-0.102773321005502	-0.611591412018706	-1.4820994713425	-2.81418595483136	
2015/06/25 15:39:25.690	-0.0966429825595597	-0.607264114292159	-1.48282068763026	-2.78281304631389	
2015/06/25 15:39:25.691	-0.104576361724897	-0.602936816565611	-1.47560852475268	-2.76261899025667	
2015/06/25 15:39:25.692	-0.10674001058817	-0.611591412018706	-1.4820994713425	-2.74458858306272	
2015/06/25 15:39:25.693	-0.101691496573865	-0.605461073572764	-1.47957521433535	-2.74458858306272	
2015/06/25 15:39:25.694	-0.105658186156534	-0.607624722436037	-1.48822980978844	-2.73449155503411	
2015/06/25 15:39:25.695	-0.104215753581018	-0.607624722436037	-1.47993582247923	-2.76478263911994	
2015/06/25 15:39:25.696	-0.0980854151350755	-0.603658032853369	-1.47632974104044	-2.88486515103163	
2015/06/25 15:39:25.697	-0.106018794300412	-0.607985330579916	-1.47416609217716	-2.93462907488693	
2015/06/25 15:39:25.698	-0.106018794300412	-0.604739857285006	-1.47777217361595	-2.96816563226767	
2015/06/25 15:39:25.699	-0.102052104717744	-0.609427763155432	-1.47596913289656	-3.08211780573342	
2015/06/25 15:39:25.700	-0.101691496573865	-0.605461073572764	-1.47885399804759	-3.13152112144484	
2015/06/25 15:39:25.701	-0.105297578012655	-0.605821681716643	-1.47849338990371	-3.15928794852352	
2015/06/25 15:39:25.702	-0.109985483883081	-0.606182289860522	-1.48246007948638	-3.18020322086849	
2015/06/25 15:39:25.703	-0.109264267595323	-0.609427763155432	-1.48642676906905	-3.18633355931444	
2015/06/25 15:39:25.704	-0.108182443163686	-0.612312628306464	-1.47669034918432	-3.22203376555845	
2015/06/25 15:39:25.705	-0.102052104717744	-0.609067155011553	-1.47993582247923	-3.1784001801491	
2015/06/25 15:39:25.706	-0.105658186156534	-0.600051951414579	-1.48065703876698	-3.07887233243851	
2015/06/25 15:39:25.707	-0.100970280286107	-0.603658032853369	-1.47921460619147	-3.03019023301485	
2015/06/25 15:39:25.708	-0.109985483883081	-0.605821681716643	-1.48065703876698	-2.99196576976368	
2015/06/25 15:39:25.709	-0.109264267595323	-0.604379249141127	-1.48282068763026	-2.90217434193782	
2015/06/25 15:39:25.710	-0.10674001058817	-0.602215600277853	-1.48462372834965	-2.83149514573755	
2015/06/25 15:39:25.711	-0.107100618732049	-0.600051951414579	-1.48426312020577	-2.80733440009766	
2015/06/25 15:39:25.712	-0.107100618732049	-0.603658032853369	-1.48606616092517	-2.78714034404044	
2015/06/25 15:39:25.713	-0.10349453729326	-0.601494383990095	-1.48354190391802	-2.76694628798321	
2015/06/25 15:39:25.714	-0.111427916458597	-0.61014897944319	-1.50121170296809	-2.73917946090453	
2015/06/25 15:39:25.716	-0.125131025925997	-0.621327831903438	-1.50157231111196	-2.8185132525579	
2015/06/25 15:39:25.717	-0.12765528293315	-0.629261211068775	-1.49940866224869	-2.92597447943383	
2015/06/25 15:39:25.718	-0.119721903767813	-0.631424859932048	-1.50481778440687	-2.93102299344814	
2015/06/25 15:39:25.719	-0.130179539940302	-0.632506684363685	-1.50734204141403	-2.99449002677083	
2015/06/25 15:39:25.720	-0.132343188803576	-0.638637022809627	-1.50986629842118	-3.07310260213645	
2015/06/25 15:39:25.721	-0.139915959825034	-0.649455267125996	-1.50662082512627	-3.11096645724374	
2015/06/25 15:39:25.722	-0.139555351681155	-0.658831078866849	-1.50986629842118	-3.09762395592021	
2015/06/25 15:39:25.723	-0.143882649407703	-0.673976620909765	-1.5113087309967	-3.10339368622228	
2015/06/25 15:39:25.724	-0.15506150186795	-0.680828175643465	-1.51527542057936	-3.11204828167537	
2015/06/25 15:39:25.725	-0.160831232170013	-0.686958514089407	-1.51455420429161	-3.08644510345997	
2015/06/25 15:39:25.726	-0.160831232170013	-0.694170676966986	-1.51311177171609	-3.00927496066987	
2015/06/25 15:39:25.726	-0.16876461133535	-0.702825272420081	-1.52176636716919	-2.8888318406143	
2015/06/25 15:39:25.727	-0.166961570615956	-0.704988921283355	-1.5113087309967	-2.8614256216795	
2015/06/25 15:39:25.728	-0.166240354328198	-0.701382839844565	-1.51311177171609	-2.78930399290371	
2015/06/25 15:39:25.729	-0.164437313608803	-0.699219190981292	-1.50914508213342	-2.68472763117881	
2015/06/25 15:39:25.730	-0.165158529896561	-0.697776758405776	-1.50301474368748	-2.64506073535213	
2015/06/25 15:39:25.731	-0.155422110011829	-0.685516081513891	-1.49796622967317	-2.62522728743878	
2015/06/25 15:39:25.732	-0.146406906414855	-0.664240201025033	-1.48462372834965	-2.60719688024484	
2015/06/25 15:39:25.733	-0.132703796947455	-0.64116127981678	-1.47380548403328	-2.57474214729573	
2015/06/25 15:39:25.734	-0.117918863048418	-0.610870195730948	-1.46587210486795	-2.58303613460495	
2015/06/25 15:39:25.735	-0.100970280286107	-0.565794177746079	-1.46118419899752	-2.60972113725199	
2015/06/25 15:39:25.736	-0.0764489265023382	-0.520357551617331	-1.43485980449436	-2.74819466450151	
2015/06/25 15:39:25.737	-0.0465184505603851	-0.468429978898761	-1.41646878915653	-2.80228588608335	
2015/06/25 15:39:25.738	-0.0140637176112792	-0.407487202583218	-1.39338986794828	-2.82500419914773	
2015/06/25 15:39:25.739	0.0108182443163686	-0.343298952972764	-1.37968675848088	-2.94725035992269	
2015/06/25 15:39:25.740	0.0526487890063273	-0.278028878930674	-1.35480479655323	-3.03668117960467	
2015/06/25 15:39:25.741	0.0915944685452543	-0.207349682730399	-1.32739857761843	-3.0875269278916	
2015/06/25 15:39:25.742	0.128376499220908	-0.134146229522971	-1.30431965641018	-3.11745740383356	
2015/06/25 15:39:25.743	0.160470624026135	-0.0591397355961484	-1.28881350622338	-3.16397585439394	
2015/06/25 15:39:25.744	0.185352585953782	-0.0209152723449793	-1.27402857232434	-3.19715180363081	
2015/06/25 15:39:25.745	0.215643670039614	0.0501245319991746	-1.26357093615185	-3.20111849321347	
2015/06/25 15:39:25.746	0.2895683395348	0.200498127996698	-1.23183741949051	-3.08788753603548	
2015/06/25 15:39:25.748	0.32058063990839	0.259637863592847	-1.23327985206602	-3.12539078299889	
2015/06/25 15:39:25.749	0.352314156569738	0.309762395592021	-1.22606768918844	-3.03740239589243	
2015/06/25 15:39:25.750	0.36890213118817	0.355559629864649	-1.2285919461956	-3.00062036521678	
2015/06/25 15:39:25.751	0.396668958266849	0.390899227964786	-1.22895255433948	-2.99449002677083	
2015/06/25 15:39:25.752	0.422272136482255	0.422272136482255	-1.23075559505887	-3.00134158150453	
2015/06/25 15:39:25.753	0.442105584395598	0.441023759963961	-1.25058904297221	-3.00134158150453	
2015/06/25 15:39:25.754	0.436696462237413	0.447154098409903	-1.26753762573452	-2.99917793264126	
2015/06/25 15:39:25.755	0.426960042352682	0.426960042352682	-1.28773168179174	-3.01792955612297	
2015/06/25 15:39:25.756	0.42046909576286	0.411453892165886	-1.31694094144594	-3.1030330780784	
2015/06/25 15:39:25.757	0.407126594439339	0.380080983648417	-1.3382168219348	-3.20400335836451	
2015/06/25 15:39:25.758	0.39991443156176	0.33103827608088	-1.36742608158899	-3.22491863070949	
2015/06/25 15:39:25.759	0.366738482324896	0.269734891621458	-1.40348689597689	-3.2811735011546	
2015/06/25 15:39:25.760	0.335004965663548	0.205907250154883	-1.43666284521375	-3.3651951986784	
2015/06/25 15:39:25.761	0.298583543131774	0.121885552631086	-1.47596913289656	-3.39873175605914	
2015/06/25 15:39:25.762	0.263604553175515	0.0364214225317744	-1.51599663686712	-3.39224080946932	
2015/06/25 15:39:25.763	0.213480021176341	-0.0526487890063273	-1.55169684311114	-3.38322560587235	
2015/06/25 15:39:25.764	0.170567652054745	-0.141719000544429	-1.58847887378679	-3.39224080946932	
2015/06/25 15:39:25.765	0.157225150731224	-0.187155626673177	-1.62057299859202	-3.36158911723961	
2015/06/25 15:39:25.766	0.111788524602476	-0.284159217376616	-1.64076705464924	-3.28153410929848	
2015/06/25 15:39:25.767	0.0804156160850067	-0.35844449501568	-1.6670914491524	-3.14558483905612	
2015/06/25 15:39:25.768	0.0421911528338376	-0.443908625114992	-1.67971273418817	-3.11421193053865	
2015/06/25 15:39:25.768	0.0119000687480055	-0.500884711847867	-1.69269462736781	-3.032714490022	
2015/06/25 15:39:25.769	-0.0245213537837689	-0.559303231156258	-1.6963007088066	-2.93895637261347	
2015/06/25 15:39:25.770	-0.0461578424165061	-0.607264114292159	-1.69846435766987	-2.88342271845612	
